Timestamp,Raw,Notch_50Hz,Butterworth,Final_Result,Artifact,SNR
432775,2032,2031.83,-6.44,-2.4,0,10.39
432780,2031,2030.5,-5.16,-2.4,0,10.39
432785,2035,2035.15,-3.81,-2.4,0,10.39
432790,2031,2031.5,-2.4,-2.4,0,10.39
432795,2034,2033.86,-0.92,-0.92,0,10.39
432800,2036,2035.5,0.64,0.64,0,10.39
432805,2036,2036.14,2.27,2.27,0,10.39
432810,2031,2031.5,3.98,3.98,0,10.39
432815,2033,2032.87,5.77,5.77,0,10.39
432820,2045,2044.52,7.63,7.63,0,10.39
432825,2039,2039.13,9.56,9.56,0,10.39
432830,2039,2039.45,11.56,11.56,0,10.39
432835,2047,2046.86,13.62,13.62,0,10.39
432840,2045,2044.58,15.73,15.73,0,10.39
432845,2054,2054.14,17.88,17.88,0,10.39
432850,2057,2057.39,20.07,20.07,0,10.39
432855,2065,2064.86,22.27,22.27,0,10.39
432860,2065,2064.64,24.47,24.47,0,10.39
432865,2069,2069.13,26.66,26.66,0,10.39
432870,2077,2077.34,28.83,28.83,0,10.39
432875,2075,2074.87,30.97,30.97,0,10.39
432880,2085,2084.68,33.05,33.05,0,10.39
432885,2083,2083.12,35.08,35.08,0,10.39
432890,2079,2079.29,37.04,37.04,0,10.39
432895,2086,2085.88,38.92,38.92,0,10.39
432900,2087,2086.75,40.71,40.71,0,10.39
432905,2087,2087.12,42.41,42.41,0,10.39
432910,2091,2091.21,44.01,44.01,0,10.39
432915,2092,2091.89,45.5,45.5,0,10.39
432920,2096,2095.83,46.88,46.88,0,10.39
432925,2095,2095.11,48.15,48.15,0,10.39
432930,2095,2095.13,49.3,49.3,0,10.39
432935,2095,2094.9,50.34,50.34,0,10.39
432940,2090,2089.91,51.26,51.26,0,10.39
432945,2098,2098.1,52.06,52.06,0,10.39
432950,2094,2094.06,52.74,52.74,0,10.39
432955,2100,2099.9,53.31,53.31,0,10.39
432960,2094,2093.97,53.75,53.75,0,10.39
432965,2097,2097.1,54.09,54.09,0,10.39
432970,2099,2099.0,54.3,54.28,0,10.39
432975,2097,2096.9,54.41,54.28,0,10.39
432980,2092,2092.02,54.4,54.28,0,10.39
432985,2101,2101.1,54.28,54.28,0,10.39
432990,2093,2092.97,54.06,54.06,0,10.39
432995,2101,2100.9,53.72,53.72,0,10.39
433000,2101,2101.05,53.28,53.28,0,10.39
433005,2099,2099.1,52.73,52.73,0,10.39
433010,2103,2102.93,52.08,52.08,0,10.39
433015,2093,2092.9,51.32,51.32,0,10.39
433020,2100,2100.09,50.47,50.47,0,10.39
433025,2095,2095.11,49.52,49.52,0,10.39
433030,2101,2100.89,48.48,48.48,0,10.39
433035,2105,2104.89,47.35,47.35,0,10.39
433040,2101,2101.12,46.14,46.14,0,10.39
433045,2096,2096.1,44.85,44.85,0,10.39
433050,2093,2092.85,43.5,43.5,0,10.39
433055,2089,2088.91,42.09,42.09,0,10.39
433060,2085,2085.17,40.62,40.62,0,10.39
433065,2093,2093.09,39.12,39.12,0,10.39
433070,2083,2082.81,37.59,37.59,0,10.39
433075,2082,2081.9,36.04,36.04,0,10.39
433080,2079,2079.21,34.48,34.48,0,10.39
433085,2081,2081.12,32.91,32.91,0,10.39
433090,2081,2080.78,31.35,31.35,0,10.39
433095,2076,2075.86,29.81,29.81,0,10.39
433100,2073,2073.23,28.29,28.29,0,10.39
433105,2062,2062.15,26.8,26.8,0,10.39
433110,2069,2068.77,25.35,25.35,0,10.39
433115,2070,2069.85,23.94,23.94,0,10.39
433120,2063,2063.24,22.57,22.57,0,10.39
433125,2064,2064.14,21.26,21.26,0,10.39
433130,2068,2067.76,19.99,19.99,0,10.39
433135,2066,2065.88,18.77,18.77,0,10.39
433140,2072,2072.24,17.6,17.6,0,10.39
433145,2064,2064.1,16.47,16.47,0,10.39
433150,2068,2067.76,15.39,15.39,0,10.39
433155,2059,2058.92,14.35,14.35,0,10.39
433160,2058,2058.24,13.35,13.35,0,10.39
433165,2060,2060.07,12.39,12.39,0,10.39
433170,2057,2056.76,11.46,11.46,0,10.39
433175,2063,2062.94,10.57,10.57,0,10.39
433180,2059,2059.24,9.7,9.7,0,10.39
433185,2060,2060.04,8.85,8.85,0,10.39
433190,2061,2060.76,8.02,8.02,0,10.39
433195,2056,2055.97,7.21,7.21,0,10.39
433200,2063,2063.24,6.39,6.39,0,10.39
433205,2058,2058.01,5.59,5.59,0,10.39
433210,2061,2060.76,4.78,4.78,0,10.39
433215,2059,2059.0,3.97,3.97,0,10.39
433220,2055,2055.24,3.15,3.15,0,10.39
433225,2054,2053.99,2.32,2.32,0,10.39
433230,2060,2059.77,1.49,1.49,0,10.39
433235,2052,2052.03,0.65,0.65,0,10.39
433240,2052,2052.22,-0.2,-0.2,0,10.39
433245,2048,2047.95,-1.06,-1.06,0,10.39
433250,2053,2052.8,-1.92,-1.92,0,10.39
433255,2050,2050.07,-2.79,-2.79,0,10.39
433260,2051,2051.18,-3.66,-3.66,0,10.39
433265,2046,2045.9,-4.53,-4.53,0,10.39
433270,2046,2045.84,-5.4,-5.4,0,10.39
433275,2047,2047.13,-6.26,-6.26,0,10.39
433280,2043,2043.14,-7.11,-7.11,0,10.39
433285,2042,2041.83,-7.95,-7.95,0,10.39
433290,2038,2037.87,-8.78,-8.78,0,10.39
433295,2041,2041.21,-9.58,-9.58,0,10.39
433300,2038,2038.12,-10.37,-10.37,0,10.39
433305,2038,2037.75,-11.13,-11.13,0,10.39
433310,2042,2041.9,-11.86,-11.86,0,10.39
433315,2029,2029.29,-12.56,-12.56,0,10.39
433320,2038,2038.08,-13.23,-13.23,0,10.39
433325,2040,2039.69,-13.87,-13.87,0,10.39
433330,2033,2032.94,-14.48,-14.48,0,10.39
433335,2032,2032.32,-15.05,-15.05,0,10.39
433340,2032,2032.05,-15.59,-15.59,0,10.39
433345,2037,2036.67,-16.1,-16.1,0,10.39
433350,2036,2035.97,-16.57,-16.57,0,10.39
433355,2030,2030.32,-17.02,-17.02,0,10.39
433360,2035,2035.01,-17.43,-17.43,0,10.39
433365,2037,2036.69,-17.82,-17.82,0,10.39
433370,2032,2032.01,-18.17,-18.17,0,10.39
433375,2037,2037.3,-18.51,-18.51,0,10.39
433380,2030,2029.97,-18.81,-18.81,0,10.39
433385,2032,2031.72,-19.09,-19.09,0,10.39
433390,2033,2033.06,-19.35,-19.35,0,10.39
433395,2037,2037.28,-19.58,-19.58,0,10.39
433400,2032,2031.92,-19.8,-19.8,0,10.39
433405,2035,2034.72,-19.99,-19.99,0,10.39
433410,2029,2029.11,-20.16,-20.16,0,10.39
433415,2029,2029.28,-20.3,-20.3,0,10.39
433420,2031,2030.87,-20.43,-20.43,0,10.39
433425,2038,2037.73,-20.53,-20.53,0,10.39
433430,2024,2024.15,-20.62,-20.62,0,10.39
433435,2030,2030.25,-20.68,-20.68,0,10.39
433440,2024,2023.84,-20.72,-20.72,0,10.39
433445,2032,2031.77,-20.74,-20.72,0,10.39
433450,2028,2028.17,-20.74,-20.72,0,10.39
433455,2030,2030.2,-20.73,-20.72,0,10.39
433460,2029,2028.81,-20.69,-20.69,0,10.39
433465,2032,2031.83,-20.64,-20.64,0,10.39
433470,2030,2030.21,-20.58,-20.58,0,10.39
433475,2038,2038.14,-20.51,-20.51,0,10.39
433480,2029,2028.77,-20.43,-20.43,0,10.39
433485,2028,2027.88,-20.34,-20.34,0,10.39
433490,2029,2029.25,-20.25,-20.25,0,10.39
433495,2030,2030.11,-20.15,-20.15,0,10.39
433500,2037,2036.73,-20.04,-20.04,0,10.39
433505,2032,2031.9,-19.94,-19.94,0,10.39
433510,2029,2029.27,-19.83,-19.83,0,10.39
433515,2030,2030.09,-19.72,-19.72,0,10.39
433520,2032,2031.73,-19.61,-19.61,0,10.39
433525,2031,2030.92,-19.51,-19.51,0,10.39
433530,2031,2031.27,-19.4,-19.4,0,10.39
433535,2031,2031.07,-19.3,-19.3,0,10.39
433540,2034,2033.74,-19.21,-19.21,0,10.39
433545,2034,2033.94,-19.12,-19.12,0,10.39
433550,2032,2032.26,-19.03,-19.03,0,10.39
433555,2027,2027.04,-18.95,-18.95,0,10.39
433560,2030,2029.75,-18.88,-18.88,0,10.39
433565,2028,2027.99,-18.82,-18.82,0,10.39
433570,2032,2032.25,-18.76,-18.76,0,10.39
433575,2033,2032.99,-18.71,-18.71,0,10.39
433580,2029,2028.75,-18.67,-18.67,0,10.39
433585,2031,2031.03,-18.64,-18.64,0,10.39
433590,2034,2034.25,-18.63,-18.64,0,10.39
433595,2032,2031.95,-18.62,-18.64,0,10.39
433600,2040,2039.74,-18.64,-18.64,0,10.39
433605,2034,2034.07,-18.66,-18.66,0,10.39
433610,2031,2031.26,-18.7,-18.7,0,10.39
433615,2035,2034.91,-18.76,-18.76,0,10.39
433620,2033,2032.75,-18.82,-18.82,0,10.39
433625,2033,2033.1,-18.9,-18.9,0,10.39
433630,2030,2030.24,-18.98,-18.98,0,10.39
433635,2032,2031.88,-19.07,-19.07,0,10.39
433640,2029,2028.77,-19.16,-19.16,0,10.39
433645,2027,2027.13,-19.26,-19.26,0,10.39
433650,2030,2030.21,-19.35,-19.35,0,10.39
433655,2033,2032.86,-19.44,-19.44,0,10.39
433660,2028,2027.79,-19.52,-19.52,0,10.39
433665,2025,2025.14,-19.59,-19.59,0,10.39
433670,2039,2039.21,-19.65,-19.65,0,10.39
433675,2032,2031.87,-19.71,-19.71,0,10.39
433680,2034,2033.78,-19.75,-19.75,0,10.39
433685,2032,2032.11,-19.77,-19.75,0,10.39
433690,2031,2031.24,-19.77,-19.75,0,10.39
433695,2028,2027.9,-19.75,-19.75,0,10.39
433700,2031,2030.75,-19.71,-19.71,0,10.39
433705,2031,2031.09,-19.63,-19.63,0,10.39
433710,2034,2034.27,-19.52,-19.52,0,10.39
433715,2030,2029.92,-19.38,-19.38,0,10.39
433720,2035,2034.72,-19.19,-19.19,0,10.39
433725,2036,2036.08,-18.97,-18.97,0,10.39
433730,2035,2035.3,-18.69,-18.69,0,10.39
433735,2034,2033.91,-18.36,-18.36,0,10.39
433740,2036,2035.68,-17.97,-17.97,0,10.39
433745,2030,2030.09,-17.52,-17.52,0,10.39
433750,2030,2030.33,-17.0,-17.0,0,10.39
433755,2038,2037.91,-16.41,-16.41,0,10.39
433760,2032,2031.66,-15.75,-15.75,0,10.39
433765,2036,2036.07,-15.0,-15.0,0,10.39
433770,2029,2029.35,-14.16,-14.16,0,10.39
433775,2030,2029.93,-13.24,-13.24,0,10.39
433780,2033,2032.64,-12.22,-12.22,0,10.39
433785,2032,2032.06,-11.12,-11.12,0,10.39
433790,2035,2035.36,-9.92,-9.92,0,10.39
433795,2036,2035.94,-8.64,-8.64,0,10.39
433800,2034,2033.63,-7.27,-7.27,0,10.39
433805,2039,2039.06,-5.82,-5.82,0,10.39
433810,2038,2038.38,-4.29,-4.29,0,10.39
433815,2042,2041.95,-2.7,-2.7,0,10.39
433820,2040,2039.61,-1.05,-1.05,0,10.39
433825,2046,2046.05,0.65,0.65,0,10.39
433830,2045,2045.41,2.39,2.39,0,10.39
433835,2055,2054.96,4.15,4.15,0,10.39
433840,2055,2054.58,5.93,5.93,0,10.39
433845,2061,2061.04,7.7,7.7,0,10.39
433850,2058,2058.43,9.47,9.47,0,10.39
433855,2064,2063.97,11.2,11.2,0,10.39
433860,2073,2072.57,12.9,12.9,0,10.39
433865,2068,2068.03,14.54,14.54,0,10.39
433870,2072,2072.43,16.13,16.13,0,10.39
433875,2070,2069.98,17.64,17.64,0,10.39
433880,2070,2069.58,19.08,19.08,0,10.39
433885,2075,2075.02,20.43,20.43,0,10.39
433890,2066,2066.42,21.69,21.69,0,10.39
433895,2074,2073.98,22.86,22.86,0,10.39
433900,2080,2079.6,23.92,23.92,0,10.39
433905,2082,2082.03,24.87,24.87,0,10.39
433910,2088,2088.38,25.72,25.72,0,10.39
433915,2082,2081.95,26.46,26.46,0,10.39
433920,2078,2077.62,27.1,27.1,0,10.39
433925,2070,2070.05,27.62,27.62,0,10.39
433930,2073,2073.38,28.05,28.05,0,10.39
433935,2077,2076.95,28.38,28.38,0,10.39
433940,2076,2075.63,28.61,28.61,0,10.39
433945,2077,2077.03,28.75,28.67,0,10.39
433950,2077,2077.36,28.81,28.67,0,10.39
433955,2075,2074.98,28.78,28.67,0,10.39
433960,2073,2072.64,28.67,28.67,0,10.39
433965,2076,2076.02,28.48,28.48,0,10.39
433970,2076,2076.37,28.23,28.23,0,10.39
433975,2076,2075.99,27.9,27.9,0,10.39
433980,2072,2071.62,27.51,27.51,0,10.39
433985,2080,2080.01,27.06,27.06,0,10.39
433990,2073,2073.39,26.56,26.56,0,10.39
433995,2075,2074.99,26.0,26.0,0,10.39
434000,2075,2074.59,25.39,25.39,0,10.39
434005,2071,2071.01,24.74,24.74,0,10.39
434010,2071,2071.42,24.05,24.05,0,10.39
434015,2074,2073.99,23.33,23.33,0,10.39
434020,2072,2071.57,22.57,22.57,0,10.39
434025,2070,2070.0,21.79,21.79,0,10.39
434030,2069,2069.44,20.98,20.98,0,10.39
434035,2073,2073.01,20.16,20.16,0,10.39
434040,2077,2076.56,19.33,19.33,0,10.39
434045,2069,2068.97,18.49,18.49,0,10.39
434050,2063,2063.43,17.64,17.64,0,10.39
434055,2058,2058.04,16.81,16.81,0,10.39
434060,2064,2063.59,15.98,15.98,0,10.39
434065,2061,2060.96,15.17,15.17,0,10.39
434070,2062,2062.38,14.37,14.37,0,10.39
434075,2058,2058.04,13.6,13.6,0,10.39
434080,2062,2061.64,12.86,12.86,0,10.39
434085,2055,2054.96,12.14,12.14,0,10.39
434090,2055,2055.33,11.46,11.46,0,10.39
434095,2051,2051.03,10.8,10.8,0,10.39
434100,2057,2056.7,10.18,10.18,0,10.39
434105,2055,2054.97,9.59,9.59,0,10.39
434110,2052,2052.27,9.03,9.03,0,10.39
434115,2058,2058.02,8.5,8.5,0,10.39
434120,2055,2054.77,7.99,7.99,0,10.39
434125,2051,2050.98,7.51,7.51,0,10.39
434130,2058,2058.19,7.03,7.03,0,10.39
434135,2056,2056.02,6.57,6.57,0,10.39
434140,2053,2052.85,6.12,6.12,0,10.39
434145,2060,2059.97,5.67,5.67,0,10.39
434150,2056,2056.13,5.23,5.23,0,10.39
434155,2059,2059.04,4.77,4.77,0,10.39
434160,2052,2051.9,4.31,4.31,0,10.39
434165,2052,2051.96,3.84,3.84,0,10.39
434170,2057,2057.09,3.36,3.36,0,10.39
434175,2051,2051.06,2.86,2.86,0,10.39
434180,2053,2052.92,2.35,2.35,0,10.39
434185,2056,2055.93,1.82,1.82,0,10.39
434190,2051,2051.07,1.27,1.27,0,10.39
434195,2052,2052.07,0.71,0.71,0,10.39
434200,2051,2050.94,0.13,0.13,0,10.39
434205,2049,2048.93,-0.46,-0.46,0,10.39
434210,2050,2050.05,-1.06,-1.06,0,10.39
434215,2048,2048.08,-1.68,-1.68,0,10.39
434220,2044,2043.96,-2.3,-2.3,0,10.39
434225,2044,2043.92,-2.93,-2.93,0,10.39
434230,2046,2046.04,-3.56,-3.56,0,10.39
434235,2043,2043.09,-4.19,-4.19,0,10.39
434240,2041,2040.95,-4.81,-4.81,0,10.39
434245,2042,2041.9,-5.43,-5.43,0,10.39
434250,2045,2045.06,-6.04,-6.04,0,10.39
434255,2042,2042.11,-6.63,-6.63,0,10.39
434260,2042,2041.93,-7.21,-7.21,0,10.39
434265,2040,2039.88,-7.78,-7.78,0,10.39
434270,2039,2039.09,-8.32,-8.32,0,10.39
434275,2040,2040.13,-8.84,-8.84,0,10.39
434280,2036,2035.9,-9.34,-9.34,0,10.39
434285,2035,2034.85,-9.8,-9.8,0,10.39
434290,2038,2038.12,-10.24,-10.24,0,10.39
434295,2033,2033.17,-10.64,-10.64,0,10.39
434300,2037,2036.85,-11.01,-11.01,0,10.39
434305,2040,2039.82,-11.35,-11.35,0,10.39
434310,2035,2035.17,-11.65,-11.65,0,10.39
434315,2039,2039.19,-11.92,-11.92,0,10.39
434320,2033,2032.81,-12.15,-12.15,0,10.39
434325,2036,2035.8,-12.35,-12.35,0,10.39
434330,2031,2031.21,-12.51,-12.51,0,10.39
434335,2026,2026.21,-12.64,-12.64,0,10.39
434340,2044,2043.78,-12.73,-12.73,0,10.39
434345,2033,2032.8,-12.8,-12.8,0,10.39
434350,2033,2033.22,-12.84,-12.8,0,10.39
434355,2038,2038.2,-12.84,-12.8,0,10.39
434360,2036,2035.79,-12.83,-12.8,0,10.39
434365,2032,2031.8,-12.79,-12.79,0,10.39
434370,2034,2034.2,-12.73,-12.73,0,10.39
434375,2035,2035.21,-12.66,-12.66,0,10.39
434380,2036,2035.82,-12.57,-12.57,0,10.39
434385,2038,2037.78,-12.48,-12.48,0,10.39
434390,2037,2037.16,-12.37,-12.37,0,10.39
434395,2038,2038.23,-12.26,-12.26,0,10.39
434400,2036,2035.85,-12.15,-12.15,0,10.39
434405,2035,2034.76,-12.04,-12.04,0,10.39
434410,2050,2050.14,-11.94,-11.94,0,10.39
434415,2034,2034.25,-11.84,-11.84,0,10.39
434420,2037,2036.84,-11.74,-11.74,0,10.39
434425,2040,2039.74,-11.66,-11.66,0,10.39
434430,2037,2037.18,-11.58,-11.58,0,10.39
434435,2034,2034.26,-11.51,-11.51,0,10.39
434440,2031,2030.79,-11.44,-11.44,0,10.39
434445,2034,2033.74,-11.39,-11.39,0,10.39
434450,2028,2028.24,-11.34,-11.34,0,10.39
434455,2036,2036.26,-11.3,-11.3,0,10.39
434460,2039,2038.74,-11.28,-11.3,0,10.39
434465,2040,2039.74,-11.27,-11.3,0,10.39
434470,2040,2040.28,-11.28,-11.3,0,10.39
434475,2041,2041.26,-11.31,-11.31,0,10.39
434480,2033,2032.7,-11.36,-11.36,0,10.39
434485,2037,2036.74,-11.43,-11.43,0,10.39
434490,2038,2038.33,-11.52,-11.52,0,10.39
434495,2039,2039.27,-11.63,-11.63,0,10.39
434500,2039,2038.64,-11.77,-11.77,0,10.39
434505,2036,2035.72,-11.92,-11.92,0,10.39
434510,2034,2034.4,-12.1,-12.1,0,10.39
434515,2035,2035.29,-12.3,-12.3,0,10.39
434520,2040,2039.58,-12.52,-12.52,0,10.39
434525,2035,2034.7,-12.75,-12.75,0,10.39
434530,2037,2037.44,-13.0,-13.0,0,10.39
434535,2035,2035.32,-13.27,-13.27,0,10.39
434540,2040,2039.54,-13.55,-13.55,0,10.39
434545,2035,2034.67,-13.84,-13.84,0,10.39
434550,2034,2034.47,-14.14,-14.14,0,10.39
434555,2038,2038.35,-14.45,-14.45,0,10.39
434560,2035,2034.52,-14.76,-14.76,0,10.39
434565,2039,2038.63,-15.06,-15.06,0,10.39
434570,2034,2034.49,-15.36,-15.36,0,10.39
434575,2031,2031.39,-15.64,-15.64,0,10.39
434580,2035,2034.5,-15.91,-15.91,0,10.39
434585,2039,2038.61,-16.15,-16.15,0,10.39
434590,2036,2036.51,-16.37,-16.37,0,10.39
434595,2029,2029.39,-16.55,-16.55,0,10.39
434600,2033,2032.48,-16.7,-16.7,0,10.39
434605,2034,2033.63,-16.79,-16.75,0,10.39
434610,2027,2027.53,-16.84,-16.75,0,10.39
434615,2029,2029.35,-16.82,-16.75,0,10.39
434620,2037,2036.46,-16.75,-16.75,0,10.39
434625,2032,2031.67,-16.6,-16.6,0,10.39
434630,2032,2032.53,-16.38,-16.38,0,10.39
434635,2034,2034.3,-16.08,-16.08,0,10.39
434640,2038,2037.48,-15.7,-15.7,0,10.39
434645,2034,2033.72,-15.24,-15.24,0,10.39
434650,2030,2030.5,-14.68,-14.68,0,10.39
434655,2030,2030.25,-14.03,-14.03,0,10.39
434660,2035,2034.52,-13.28,-13.28,0,10.39
434665,2034,2033.78,-12.44,-12.44,0,10.39
434670,2029,2029.44,-11.5,-11.5,0,10.39
434675,2034,2034.19,-10.46,-10.46,0,10.39
434680,2031,2030.59,-9.32,-9.32,0,10.39
434685,2037,2036.84,-8.09,-8.09,0,10.39
434690,2041,2041.38,-6.77,-6.77,0,10.39
434695,2041,2041.13,-5.37,-5.37,0,10.39
434700,2044,2043.65,-3.9,-3.9,0,10.39
434705,2040,2039.9,-2.36,-2.36,0,10.39
434710,2046,2046.33,-0.75,-0.75,0,10.39
434715,2048,2048.07,0.9,0.9,0,10.39
434720,2048,2047.7,2.59,2.59,0,10.39
434725,2050,2049.94,4.31,4.31,0,10.39
434730,2054,2054.28,6.05,6.05,0,10.39
434735,2059,2059.04,7.79,7.79,0,10.39
434740,2058,2057.73,9.53,9.53,0,10.39
434745,2065,2064.97,11.24,11.24,0,10.39
434750,2064,2064.25,12.93,12.93,0,10.39
434755,2067,2067.02,14.57,14.57,0,10.39
434760,2072,2071.77,16.16,16.16,0,10.39
434765,2069,2068.99,17.69,17.69,0,10.39
434770,2077,2077.22,19.14,19.14,0,10.39
434775,2078,2078.0,20.52,20.52,0,10.39
434780,2079,2078.8,21.8,21.8,0,10.39
434785,2074,2074.0,22.99,22.99,0,10.39
434790,2076,2076.18,24.09,24.09,0,10.39
434795,2079,2079.01,25.09,25.09,0,10.39
434800,2077,2076.84,25.99,25.99,0,10.39
434805,2075,2074.98,26.78,26.78,0,10.39
434810,2079,2079.14,27.48,27.48,0,10.39
434815,2077,2077.03,28.07,28.07,0,10.39
434820,2081,2080.87,28.57,28.57,0,10.39
434825,2075,2074.95,28.96,28.96,0,10.39
434830,2078,2078.1,29.26,29.26,0,10.39
434835,2078,2078.08,29.47,29.47,0,10.39
434840,2076,2075.92,29.58,29.47,0,10.39
434845,2079,2078.9,29.6,29.47,0,10.39
434850,2074,2074.06,29.54,29.47,0,10.39
434855,2078,2078.13,29.39,29.39,0,10.39
434860,2077,2076.97,29.16,29.16,0,10.39
434865,2081,2080.85,28.85,28.85,0,10.39
434870,2077,2077.01,28.47,28.47,0,10.39
434875,2077,2077.17,28.01,28.01,0,10.39
434880,2079,2079.02,27.48,27.48,0,10.39
434885,2076,2075.82,26.88,26.88,0,10.39
434890,2075,2074.95,26.22,26.22,0,10.39
434895,2075,2075.2,25.5,25.5,0,10.39
434900,2072,2072.09,24.73,24.73,0,10.39
434905,2074,2073.79,23.9,23.9,0,10.39
434910,2077,2076.88,23.03,23.03,0,10.39
434915,2074,2074.23,22.11,22.11,0,10.39
434920,2078,2078.14,21.16,21.16,0,10.39
434925,2073,2072.75,20.17,20.17,0,10.39
434930,2074,2073.83,19.16,19.16,0,10.39
434935,2068,2068.27,18.13,18.13,0,10.39
434940,2069,2069.2,17.08,17.08,0,10.39
434945,2068,2067.72,16.03,16.03,0,10.39
434950,2066,2065.77,14.99,14.99,0,10.39
434955,2064,2064.29,13.95,13.95,0,10.39
434960,2060,2060.26,12.94,12.94,0,10.39
434965,2067,2066.7,11.94,11.94,0,10.39
434970,2055,2054.72,10.99,10.99,0,10.39
434975,2048,2048.3,10.07,10.07,0,10.39
434980,2052,2052.31,9.2,9.2,0,10.39
434985,2053,2052.72,8.38,8.38,0,10.39
434990,2058,2057.66,7.61,7.61,0,10.39
434995,2048,2048.25,6.89,6.89,0,10.39
435000,2053,2053.36,6.23,6.23,0,10.39
434995,2048,2047.78,5.63,5.63,0,10.39
435005,2054,2053.63,5.08,5.08,0,10.39
435010,2050,2050.19,4.57,4.57,0,10.39
435015,2052,2052.38,4.12,4.12,0,10.39
435020,2054,2053.84,3.7,3.7,0,10.39
435025,2054,2053.61,3.33,3.33,0,10.39
435030,2050,2050.13,2.98,2.98,0,10.39
435035,2057,2057.41,2.66,2.66,0,10.39
435040,2053,2052.91,2.36,2.36,0,10.39
435045,2060,2059.58,2.07,2.07,0,10.39
435050,2053,2053.05,1.79,1.79,0,10.39
435055,2050,2050.43,1.51,1.51,0,10.39
435060,2051,2050.99,1.23,1.23,0,10.39
435065,2052,2051.57,0.94,0.94,0,10.39
435070,2055,2054.97,0.65,0.65,0,10.39
435075,2054,2054.43,0.33,0.33,0,10.39
435080,2048,2048.06,0.0,0.0,0,10.39
435085,2057,2056.57,-0.35,-0.35,0,10.39
435090,2056,2055.93,-0.73,-0.73,0,10.39
435095,2053,2053.43,-1.14,-1.14,0,10.39
435100,2054,2054.08,-1.58,-1.58,0,10.39
435105,2058,2057.58,-2.04,-2.04,0,10.39
435110,2052,2051.91,-2.53,-2.53,0,10.39
435115,2046,2046.4,-3.05,-3.05,0,10.39
435120,2050,2050.11,-3.59,-3.59,0,10.39
435125,2050,2049.62,-4.14,-4.14,0,10.39
435130,2043,2042.88,-4.71,-4.71,0,10.39
435135,2049,2049.35,-5.29,-5.29,0,10.39
435140,2043,2043.14,-5.88,-5.88,0,10.39
435145,2045,2044.68,-6.47,-6.47,0,10.39
435150,2043,2042.84,-7.05,-7.05,0,10.39
435155,2038,2038.29,-7.62,-7.62,0,10.39
435160,2035,2035.18,-8.18,-8.18,0,10.39
435165,2040,2039.74,-8.71,-8.71,0,10.39
435170,2043,2042.82,-9.23,-9.23,0,10.39
435175,2039,2039.22,-9.72,-9.72,0,10.39
435180,2041,2041.18,-10.19,-10.19,0,10.39
435185,2036,2035.81,-10.62,-10.62,0,10.39
435190,2043,2042.82,-11.02,-11.02,0,10.39
435195,2035,2035.16,-11.39,-11.39,0,10.39
435200,2034,2034.16,-11.73,-11.73,0,10.39
435205,2035,2034.87,-12.03,-12.03,0,10.39
435210,2038,2037.86,-12.29,-12.29,0,10.39
435215,2034,2034.1,-12.51,-12.51,0,10.39
435220,2036,2036.12,-12.7,-12.7,0,10.39
435225,2034,2033.94,-12.86,-12.86,0,10.39
435230,2034,2033.9,-12.99,-12.99,0,10.39
435235,2043,2043.04,-13.08,-13.08,0,10.39
435240,2036,2036.08,-13.15,-13.15,0,10.39
435245,2041,2040.98,-13.2,-13.2,0,10.39
435250,2039,2038.94,-13.23,-13.23,0,10.39
435255,2037,2037.0,-13.25,-13.23,0,10.39
435260,2038,2038.04,-13.24,-13.23,0,10.39
435265,2039,2039.02,-13.23,-13.23,0,10.39
435270,2038,2037.99,-13.21,-13.21,0,10.39
435275,2045,2044.96,-13.19,-13.19,0,10.39
435280,2042,2041.99,-13.16,-13.16,0,10.39
435285,2036,2036.06,-13.12,-13.12,0,10.39
435290,2042,2042.03,-13.09,-13.09,0,10.39
435295,2044,2043.95,-13.05,-13.05,0,10.39
435300,2033,2032.95,-13.02,-13.02,0,10.39
435305,2036,2036.04,-12.98,-12.98,0,10.39
435310,2033,2033.08,-12.94,-12.94,0,10.39
435315,2033,2032.97,-12.9,-12.9,0,10.39
435320,2042,2041.9,-12.86,-12.86,0,10.39
435325,2034,2034.02,-12.82,-12.82,0,10.39
435330,2037,2037.12,-12.78,-12.78,0,10.39
435335,2037,2037.0,-12.75,-12.75,0,10.39
435340,2044,2043.87,-12.73,-12.73,0,10.39
435345,2038,2037.99,-12.71,-12.71,0,10.39
435350,2040,2040.13,-12.7,-12.71,0,10.39
435355,2039,2039.03,-12.7,-12.71,0,10.39
435360,2038,2037.87,-12.71,-12.71,0,10.39
435365,2042,2041.96,-12.73,-12.73,0,10.39
435370,2040,2040.13,-12.76,-12.76,0,10.39
435375,2037,2037.05,-12.79,-12.79,0,10.39
435380,2039,2038.87,-12.84,-12.84,0,10.39
435385,2039,2038.95,-12.9,-12.9,0,10.39
435390,2032,2032.13,-12.97,-12.97,0,10.39
435395,2036,2036.05,-13.04,-13.04,0,10.39
435400,2033,2032.87,-13.12,-13.12,0,10.39
435405,2044,2043.95,-13.21,-13.21,0,10.39
435410,2040,2040.13,-13.31,-13.31,0,10.39
435415,2039,2039.03,-13.41,-13.41,0,10.39
435420,2036,2035.86,-13.52,-13.52,0,10.39
435425,2037,2036.99,-13.63,-13.63,0,10.39
435430,2040,2040.15,-13.75,-13.75,0,10.39
435435,2036,2036.0,-13.87,-13.87,0,10.39
435440,2037,2036.83,-14.0,-14.0,0,10.39
435445,2038,2038.02,-14.12,-14.12,0,10.39
435450,2035,2035.19,-14.25,-14.25,0,10.39
435455,2039,2038.96,-14.38,-14.38,0,10.39
435460,2040,2039.8,-14.5,-14.5,0,10.39
435465,2039,2039.06,-14.62,-14.62,0,10.39
435470,2033,2033.21,-14.73,-14.73,0,10.39
435475,2040,2039.92,-14.83,-14.83,0,10.39
435480,2041,2040.79,-14.92,-14.92,0,10.39
435485,2037,2037.1,-15.0,-15.0,0,10.39
435490,2036,2036.2,-15.06,-15.06,0,10.39
435495,2036,2035.89,-15.1,-15.06,0,10.39
435500,2040,2039.81,-15.11,-15.06,0,10.39
435505,2036,2036.13,-15.1,-15.06,0,10.39
435510,2036,2036.17,-15.06,-15.06,0,10.39
435515,2041,2040.86,-14.98,-14.98,0,10.39
435520,2036,2035.86,-14.86,-14.86,0,10.39
435525,2038,2038.15,-14.7,-14.7,0,10.39
435530,2036,2036.12,-14.5,-14.5,0,10.39
435535,2033,2032.84,-14.24,-14.24,0,10.39
435540,2041,2040.9,-13.93,-13.93,0,10.39
435545,2032,2032.18,-13.57,-13.57,0,10.39
435550,2041,2041.07,-13.14,-13.14,0,10.39
435555,2045,2044.82,-12.65,-12.65,0,10.39
435560,2037,2036.96,-12.1,-12.1,0,10.39
435565,2038,2038.17,-11.49,-11.49,0,10.39
435570,2043,2043.02,-10.8,-10.8,0,10.39
435575,2041,2040.85,-10.05,-10.05,0,10.39
435580,2042,2041.99,-9.23,-9.23,0,10.39
435585,2044,2044.14,-8.33,-8.33,0,10.39
435590,2043,2043.0,-7.37,-7.37,0,10.39
435595,2040,2039.87,-6.33,-6.33,0,10.39
435600,2043,2043.02,-5.22,-5.22,0,10.39
435605,2045,2045.13,-4.04,-4.04,0,10.39
435610,2040,2039.97,-2.8,-2.8,0,10.39
435615,2043,2042.87,-1.49,-1.49,0,10.39
435620,2048,2048.05,-0.12,-0.12,0,10.39
435625,2046,2046.13,1.3,1.3,0,10.39
435630,2051,2050.92,2.77,2.77,0,10.39
435635,2055,2054.87,4.27,4.27,0,10.39
435640,2058,2058.1,5.8,5.8,0,10.39
435645,2059,2059.13,7.35,7.35,0,10.39
435650,2063,2062.87,8.9,8.9,0,10.39
435655,2057,2056.86,10.46,10.46,0,10.39
435660,2067,2067.16,12.0,12.0,0,10.39
435665,2072,2072.15,13.53,13.53,0,10.39
435670,2076,2075.81,15.02,15.02,0,10.39
435675,2070,2069.82,16.48,16.48,0,10.39
435680,2074,2074.21,17.9,17.9,0,10.39
435685,2076,2076.21,19.26,19.26,0,10.39
435690,2079,2078.78,20.56,20.56,0,10.39
435695,2080,2079.75,21.81,21.81,0,10.39
435700,2075,2075.23,22.99,22.99,0,10.39
435705,2074,2074.28,24.1,24.1,0,10.39
435710,2074,2073.76,25.15,25.15,0,10.39
435715,2078,2077.7,26.13,26.13,0,10.39
435720,2078,2078.25,27.03,27.03,0,10.39
435725,2080,2080.32,27.86,27.86,0,10.39
435730,2080,2079.73,28.62,28.62,0,10.39
435735,2080,2079.65,29.3,29.3,0,10.39
435740,2076,2076.28,29.91,29.91,0,10.39
435745,2079,2079.37,30.43,30.43,0,10.39
435750,2081,2080.72,30.89,30.89,0,10.39
435755,2082,2081.61,31.26,31.26,0,10.39
435760,2074,2074.28,31.55,31.55,0,10.39
435765,2083,2083.42,31.76,31.76,0,10.39
435770,2083,2082.73,31.89,31.77,0,10.39
435775,2082,2081.56,31.94,31.77,0,10.39
435780,2087,2087.26,31.9,31.77,0,10.39
435785,2083,2083.47,31.77,31.77,0,10.39
435790,2091,2090.76,31.55,31.55,0,10.39
435795,2085,2084.5,31.24,31.24,0,10.39
435800,2082,2082.22,30.84,30.84,0,10.39
435805,2081,2081.52,30.36,30.36,0,10.39
435810,2084,2083.81,29.8,29.8,0,10.39
435815,2084,2083.45,29.15,29.15,0,10.39
435820,2087,2087.16,28.43,28.43,0,10.39
435825,2081,2081.57,27.63,27.63,0,10.39
435830,2085,2084.86,26.76,26.76,0,10.39
435835,2079,2078.41,25.83,25.83,0,10.39
435840,2084,2084.11,24.84,24.84,0,10.39
435845,2075,2075.61,23.8,23.8,0,10.39
435850,2073,2072.9,22.73,22.73,0,10.39
435855,2079,2078.37,21.61,21.61,0,10.39
435860,2071,2071.09,20.48,20.48,0,10.39
435865,2065,2065.63,19.33,19.33,0,10.39
435870,2062,2061.92,18.18,18.18,0,10.39
435875,2068,2067.37,17.03,17.03,0,10.39
435880,2066,2066.09,15.89,15.89,0,10.39
435885,2061,2061.62,14.76,14.76,0,10.39
435890,2061,2060.9,13.66,13.66,0,10.39
435895,2064,2063.39,12.59,12.59,0,10.39
435900,2060,2060.11,11.56,11.56,0,10.39
435905,2059,2059.59,10.56,10.56,0,10.39
435910,2058,2057.87,9.6,9.6,0,10.39
435915,2057,2056.43,8.69,8.69,0,10.39
435920,2055,2055.14,7.82,7.82,0,10.39
435925,2053,2053.55,7.01,7.01,0,10.39
435930,2058,2057.85,6.23,6.23,0,10.39
435935,2055,2054.47,5.51,5.51,0,10.39
435940,2052,2052.16,4.83,4.83,0,10.39
435945,2053,2053.51,4.19,4.19,0,10.39
435950,2051,2050.84,3.6,3.6,0,10.39
435955,2049,2048.51,3.04,3.04,0,10.39
435960,2056,2056.17,2.52,2.52,0,10.39
435965,2056,2056.48,2.03,2.03,0,10.39
435970,2054,2053.82,1.56,1.56,0,10.39
435975,2055,2054.52,1.11,1.11,0,10.39
435980,2054,2054.19,0.67,0.67,0,10.39
435985,2052,2052.47,0.25,0.25,0,10.39
435990,2057,2056.79,-0.17,-0.17,0,10.39
435995,2053,2052.53,-0.58,-0.58,0,10.39
436000,2052,2052.21,-1.0,-1.0,0,10.39
436005,2053,2053.47,-1.41,-1.41,0,10.39
436010,2056,2055.79,-1.83,-1.83,0,10.39
436015,2052,2051.54,-2.25,-2.25,0,10.39
436020,2052,2052.21,-2.68,-2.68,0,10.39
436025,2048,2048.46,-3.12,-3.12,0,10.39
436030,2050,2049.79,-3.56,-3.56,0,10.39
436035,2048,2047.54,-4.0,-4.0,0,10.39
436040,2047,2047.2,-4.45,-4.45,0,10.39
436045,2039,2039.45,-4.89,-4.89,0,10.39
436050,2051,2050.8,-5.34,-5.34,0,10.39
436055,2046,2045.57,-5.78,-5.78,0,10.39
436060,2044,2044.18,-6.22,-6.22,0,10.39
436065,2044,2044.4,-6.66,-6.66,0,10.39
436070,2040,2039.84,-7.09,-7.09,0,10.39
436075,2038,2037.62,-7.51,-7.51,0,10.39
436080,2042,2042.15,-7.92,-7.92,0,10.39
436085,2043,2043.37,-8.32,-8.32,0,10.39
436090,2044,2043.86,-8.71,-8.71,0,10.39
436095,2042,2041.63,-9.08,-9.08,0,10.39
436100,2047,2047.13,-9.45,-9.45,0,10.39
436105,2039,2039.36,-9.8,-9.8,0,10.39
436110,2044,2043.88,-10.14,-10.14,0,10.39
436115,2040,2039.65,-10.47,-10.47,0,10.39
436120,2040,2040.12,-10.78,-10.78,0,10.39
436125,2043,2043.34,-11.07,-11.07,0,10.39
436130,2035,2034.89,-11.34,-11.34,0,10.39
436135,2037,2036.66,-11.59,-11.59,0,10.39
436140,2033,2033.11,-11.81,-11.81,0,10.39
436145,2039,2039.35,-12.02,-12.02,0,10.39
436150,2036,2035.9,-12.2,-12.2,0,10.39
436155,2046,2045.64,-12.35,-12.35,0,10.39
436160,2031,2031.09,-12.49,-12.49,0,10.39
436165,2039,2039.35,-12.6,-12.6,0,10.39
436170,2035,2034.93,-12.69,-12.69,0,10.39
436175,2038,2037.65,-12.76,-12.76,0,10.39
436180,2034,2034.05,-12.81,-12.81,0,10.39
436185,2037,2037.34,-12.84,-12.83,0,10.39
436190,2039,2038.97,-12.85,-12.83,0,10.39
436195,2039,2038.67,-12.85,-12.83,0,10.39
436200,2042,2042.0,-12.83,-12.83,0,10.39
436205,2043,2043.33,-12.81,-12.81,0,10.39
436210,2039,2039.02,-12.77,-12.77,0,10.39
436215,2035,2034.67,-12.73,-12.73,0,10.39
436220,2034,2033.95,-12.67,-12.67,0,10.39
436225,2035,2035.34,-12.61,-12.61,0,10.39
436230,2039,2039.08,-12.54,-12.54,0,10.39
436235,2034,2033.65,-12.46,-12.46,0,10.39
436240,2040,2039.89,-12.38,-12.38,0,10.39
436245,2039,2039.37,-12.3,-12.3,0,10.39
436250,2036,2036.14,-12.21,-12.21,0,10.39
436255,2038,2037.61,-12.13,-12.13,0,10.39
436260,2036,2035.83,-12.06,-12.06,0,10.39
436265,2039,2039.42,-11.98,-11.98,0,10.39
436270,2037,2037.2,-11.92,-11.92,0,10.39
436275,2046,2045.56,-11.86,-11.86,0,10.39
436280,2045,2044.78,-11.82,-11.82,0,10.39
436285,2041,2041.46,-11.79,-11.79,0,10.39
436290,2041,2041.24,-11.77,-11.77,0,10.39
436295,2040,2039.53,-11.76,-11.77,0,10.39
436300,2042,2041.75,-11.76,-11.77,0,10.39
436305,2036,2036.48,-11.77,-11.77,0,10.39
436310,2039,2039.26,-11.79,-11.79,0,10.39
436315,2041,2040.51,-11.82,-11.82,0,10.39
436320,2039,2038.73,-11.84,-11.84,0,10.39
436325,2036,2036.49,-11.87,-11.87,0,10.39
436330,2035,2035.28,-11.91,-11.91,0,10.39
436335,2035,2034.51,-11.93,-11.93,0,10.39
436340,2037,2036.71,-11.96,-11.96,0,10.39
436345,2028,2028.49,-11.98,-11.98,0,10.39
436350,2042,2042.3,-12.0,-12.0,0,10.39
436355,2039,2038.52,-12.01,-12.01,0,10.39
436360,2035,2034.68,-12.01,-12.01,0,10.39
436365,2035,2035.46,-12.01,-12.01,0,10.39
436370,2034,2034.34,-12.01,-12.01,0,10.39
436375,2036,2035.57,-12.01,-12.01,0,10.39
436380,2039,2038.64,-12.0,-12.0,0,10.39
436385,2042,2042.41,-12.0,-12.0,0,10.39
436390,2038,2038.37,-12.0,-12.0,0,10.39
436395,2041,2040.6,-12.0,-12.0,0,10.39
436400,2041,2040.61,-12.01,-12.01,0,10.39
436405,2039,2039.39,-12.02,-12.02,0,10.39
436410,2041,2041.4,-12.04,-12.04,0,10.39
436415,2040,2039.63,-12.06,-12.06,0,10.39
436420,2037,2036.58,-12.09,-12.09,0,10.39
436425,2032,2032.35,-12.13,-12.13,0,10.39
436430,2035,2035.44,-12.16,-12.16,0,10.39
436435,2039,2038.67,-12.2,-12.2,0,10.39
436440,2038,2037.54,-12.25,-12.25,0,10.39
436445,2038,2038.29,-12.3,-12.3,0,10.39
436450,2036,2036.47,-12.35,-12.35,0,10.39
436455,2039,2038.74,-12.4,-12.4,0,10.39
436460,2042,2041.52,-12.46,-12.46,0,10.39
436465,2039,2039.23,-12.52,-12.52,0,10.39
436470,2039,2039.49,-12.58,-12.58,0,10.39
436475,2038,2037.81,-12.64,-12.64,0,10.39
436480,2041,2040.51,-12.7,-12.7,0,10.39
436485,2042,2042.17,-12.75,-12.75,0,10.39
436490,2041,2041.5,-12.8,-12.8,0,10.39
436495,2039,2038.86,-12.84,-12.84,0,10.39
436500,2047,2046.5,-12.86,-12.84,0,10.39
436505,2036,2036.12,-12.87,-12.84,0,10.39
436510,2039,2039.49,-12.85,-12.84,0,10.39
436515,2036,2035.9,-12.8,-12.8,0,10.39
436520,2039,2038.52,-12.71,-12.71,0,10.39
436525,2039,2039.07,-12.59,-12.59,0,10.39
436530,2043,2043.47,-12.42,-12.42,0,10.39
436535,2034,2033.94,-12.19,-12.19,0,10.39
436540,2037,2036.53,-11.91,-11.91,0,10.39
436545,2040,2040.05,-11.57,-11.57,0,10.39
436550,2037,2037.48,-11.15,-11.15,0,10.39
436555,2036,2035.95,-10.67,-10.67,0,10.39
436560,2036,2035.51,-10.1,-10.1,0,10.39
436565,2033,2033.05,-9.46,-9.46,0,10.39
436570,2041,2041.5,-8.73,-8.73,0,10.39
436575,2037,2036.96,-7.93,-7.93,0,10.39
436580,2041,2040.48,-7.04,-7.04,0,10.39
436585,2038,2038.03,-6.06,-6.06,0,10.39
436590,2041,2041.54,-5.01,-5.01,0,10.39
436595,2041,2040.98,-3.88,-3.88,0,10.39
436600,2045,2044.44,-2.68,-2.68,0,10.39
436605,2039,2039.01,-1.42,-1.42,0,10.39
436610,2044,2044.58,-0.09,-0.09,0,10.39
436615,2047,2047.01,1.29,1.29,0,10.39
436620,2051,2050.41,2.71,2.71,0,10.39
436625,2050,2049.97,4.17,4.17,0,10.39
436630,2055,2055.61,5.64,5.64,0,10.39
436635,2059,2059.06,7.13,7.13,0,10.39
436640,2060,2059.38,8.62,8.62,0,10.39
436645,2057,2056.91,10.09,10.09,0,10.39
436650,2063,2063.63,11.55,11.55,0,10.39
436655,2069,2069.14,12.97,12.97,0,10.39
436660,2074,2073.35,14.34,14.34,0,10.39
436665,2074,2073.82,15.66,15.66,0,10.39
436670,2071,2071.65,16.91,16.91,0,10.39
436675,2071,2071.23,18.1,18.1,0,10.39
436680,2076,2075.35,19.2,19.2,0,10.39
436685,2082,2081.74,20.23,20.23,0,10.39
436690,2074,2074.64,21.18,21.18,0,10.39
436695,2067,2067.28,22.04,22.04,0,10.39
436700,2086,2085.37,22.81,22.81,0,10.39
436705,2074,2073.71,23.5,23.5,0,10.39
436710,2075,2075.61,24.1,24.1,0,10.39
436715,2073,2073.29,24.62,24.62,0,10.39
436720,2074,2073.43,25.05,25.05,0,10.39
436725,2074,2073.72,25.41,25.41,0,10.39
436730,2071,2071.54,25.7,25.7,0,10.39
436735,2076,2076.28,25.91,25.91,0,10.39
436740,2074,2073.49,26.06,26.06,0,10.39
436745,2074,2073.71,26.14,26.06,0,10.39
436750,2072,2072.47,26.15,26.06,0,10.39
436755,2075,2075.29,26.11,26.06,0,10.39
436760,2074,2073.56,26.0,26.0,0,10.39
436765,2068,2067.69,25.85,25.85,0,10.39
436770,2074,2074.4,25.63,25.63,0,10.39
436775,2076,2076.33,25.37,25.37,0,10.39
436780,2073,2072.64,25.06,25.06,0,10.39
436785,2078,2077.64,24.69,24.69,0,10.39
436790,2074,2074.33,24.28,24.28,0,10.39
436795,2071,2071.38,23.83,23.83,0,10.39
436800,2071,2070.7,23.33,23.33,0,10.39
436805,2077,2076.6,22.79,22.79,0,10.39
436810,2077,2077.28,22.21,22.21,0,10.39
436815,2068,2068.41,21.59,21.59,0,10.39
436820,2069,2068.73,20.94,20.94,0,10.39
436825,2076,2075.6,20.26,20.26,0,10.39
436830,2071,2071.26,19.55,19.55,0,10.39
436835,2069,2069.39,18.81,18.81,0,10.39
436840,2067,2066.74,18.05,18.05,0,10.39
436845,2066,2065.62,17.27,17.27,0,10.39
436850,2066,2066.27,16.48,16.48,0,10.39
436855,2067,2067.36,15.68,15.68,0,10.39
436860,2070,2069.73,14.88,14.88,0,10.39
436865,2060,2059.64,14.07,14.07,0,10.39
436870,2059,2059.26,13.26,13.26,0,10.39
436875,2067,2067.37,12.46,12.46,0,10.39
436880,2057,2056.76,11.67,11.67,0,10.39
436885,2058,2057.62,10.89,10.89,0,10.39
436890,2058,2058.23,10.12,10.12,0,10.39
436895,2055,2055.41,9.38,9.38,0,10.39
436900,2057,2056.78,8.65,8.65,0,10.39
436905,2055,2054.57,7.95,7.95,0,10.39
436910,2055,2055.21,7.27,7.27,0,10.39
436915,2054,2054.45,6.61,6.61,0,10.39
436920,2050,2049.8,5.98,5.98,0,10.39
436925,2064,2063.53,5.36,5.36,0,10.39
436930,2049,2049.2,4.77,4.77,0,10.39
436935,2056,2056.48,4.2,4.2,0,10.39
436940,2052,2051.81,3.65,3.65,0,10.39
436945,2053,2052.52,3.12,3.12,0,10.39
436950,2055,2055.19,2.61,2.61,0,10.39
436955,2048,2048.48,2.12,2.12,0,10.39
436960,2053,2052.81,1.64,1.64,0,10.39
436965,2052,2051.52,1.18,1.18,0,10.39
436970,2048,2048.18,0.73,0.73,0,10.39
436975,2051,2051.48,0.29,0.29,0,10.39
436980,2050,2049.82,-0.13,-0.13,0,10.39
436985,2051,2050.53,-0.55,-0.55,0,10.39
436990,2049,2049.17,-0.96,-0.96,0,10.39
436995,2048,2048.47,-1.35,-1.35,0,10.39
437000,2054,2053.85,-1.74,-1.74,0,10.39
437005,2049,2048.53,-2.12,-2.12,0,10.39
437010,2049,2049.14,-2.5,-2.5,0,10.39
437015,2046,2046.46,-2.86,-2.86,0,10.39
437020,2049,2048.89,-3.22,-3.22,0,10.39
437025,2049,2048.55,-3.56,-3.56,0,10.39
437030,2044,2044.09,-3.9,-3.9,0,10.39
437035,2045,2045.44,-4.22,-4.22,0,10.39
437040,2041,2040.94,-4.52,-4.52,0,10.39
437045,2045,2044.58,-4.81,-4.81,0,10.39
437050,2043,2043.04,-5.08,-5.08,0,10.39
437055,2043,2043.41,-5.33,-5.33,0,10.39
437060,2044,2043.98,-5.56,-5.56,0,10.39
437065,2043,2042.61,-5.76,-5.76,0,10.39
437070,2038,2037.99,-5.95,-5.95,0,10.39
437075,2034,2034.37,-6.11,-6.11,0,10.39
437080,2043,2043.04,-6.25,-6.25,0,10.39
437085,2043,2042.66,-6.37,-6.37,0,10.39
437090,2042,2041.92,-6.47,-6.47,0,10.39
437095,2043,2043.3,-6.56,-6.56,0,10.39
437100,2040,2040.12,-6.63,-6.63,0,10.39
437105,2039,2038.73,-6.68,-6.68,0,10.39
437110,2046,2045.85,-6.72,-6.72,0,10.39
437115,2044,2044.24,-6.75,-6.75,0,10.39
437120,2046,2046.18,-6.77,-6.77,0,10.39
437125,2043,2042.78,-6.79,-6.79,0,10.39
437130,2046,2045.79,-6.8,-6.8,0,10.39
437135,2040,2040.2,-6.81,-6.81,0,10.39
437140,2043,2043.24,-6.81,-6.81,0,10.39
437145,2043,2042.83,-6.81,-6.81,0,10.39
437150,2044,2043.73,-6.81,-6.81,0,10.39
437155,2034,2034.14,-6.81,-6.81,0,10.39
437160,2037,2037.29,-6.8,-6.8,0,10.39
437165,2044,2043.9,-6.8,-6.8,0,10.39
437170,2049,2048.7,-6.79,-6.79,0,10.39
437175,2042,2042.04,-6.79,-6.79,0,10.39
437180,2043,2043.3,-6.78,-6.79,0,10.39
437185,2038,2038.01,-6.78,-6.79,0,10.39
437190,2046,2045.71,-6.78,-6.79,0,10.39
437195,2043,2042.94,-6.79,-6.79,0,10.39
437200,2041,2041.28,-6.8,-6.8,0,10.39
437205,2034,2034.1,-6.81,-6.81,0,10.39
437210,2044,2043.74,-6.82,-6.82,0,10.39
437215,2042,2041.88,-6.83,-6.83,0,10.39
437220,2044,2044.24,-6.85,-6.85,0,10.39
437225,2043,2043.14,-6.87,-6.87,0,10.39
437230,2043,2042.78,-6.89,-6.89,0,10.39
437235,2039,2038.83,-6.92,-6.92,0,10.39
437240,2046,2046.21,-6.95,-6.95,0,10.39
437245,2034,2034.19,-6.98,-6.98,0,10.39
437250,2044,2043.8,-7.01,-7.01,0,10.39
437255,2045,2044.79,-7.04,-7.04,0,10.39
437260,2043,2043.19,-7.07,-7.07,0,10.39
437265,2040,2040.21,-7.11,-7.11,0,10.39
437270,2037,2036.81,-7.14,-7.14,0,10.39
437275,2038,2037.79,-7.17,-7.17,0,10.39
437280,2042,2042.19,-7.2,-7.2,0,10.39
437285,2042,2042.22,-7.22,-7.22,0,10.39
437290,2041,2040.8,-7.25,-7.25,0,10.39
437295,2041,2040.77,-7.27,-7.27,0,10.39
437300,2042,2042.21,-7.28,-7.28,0,10.39
437305,2041,2041.24,-7.3,-7.3,0,10.39
437310,2046,2045.78,-7.31,-7.31,0,10.39
437315,2042,2041.74,-7.31,-7.31,0,10.39
437320,2033,2033.22,-7.31,-7.31,0,10.39
437325,2034,2034.26,-7.31,-7.31,0,10.39
437330,2041,2040.8,-7.3,-7.3,0,10.39
437335,2042,2041.74,-7.28,-7.28,0,10.39
437340,2040,2040.18,-7.26,-7.26,0,10.39
437345,2037,2037.25,-7.24,-7.24,0,10.39
437350,2040,2039.84,-7.21,-7.21,0,10.39
437355,2042,2041.77,-7.18,-7.18,0,10.39
437360,2048,2048.14,-7.15,-7.15,0,10.39
437365,2039,2039.21,-7.13,-7.13,0,10.39
437370,2044,2043.87,-7.1,-7.1,0,10.39
437375,2037,2036.81,-7.08,-7.08,0,10.39
437380,2038,2038.13,-7.06,-7.06,0,10.39
437385,2040,2040.17,-7.04,-7.04,0,10.39
437390,2038,2037.89,-7.03,-7.03,0,10.39
437395,2043,2042.85,-7.02,-7.03,0,10.39
437400,2038,2038.1,-7.02,-7.03,0,10.39
437405,2040,2040.13,-7.03,-7.03,0,10.39
437410,2040,2039.91,-7.05,-7.05,0,10.39
437415,2042,2041.9,-7.07,-7.07,0,10.39
437420,2041,2041.08,-7.11,-7.11,0,10.39
437425,2044,2044.08,-7.16,-7.16,0,10.39
437430,2045,2044.94,-7.22,-7.22,0,10.39
437435,2042,2041.94,-7.29,-7.29,0,10.39
437440,2040,2040.04,-7.38,-7.38,0,10.39
437445,2046,2046.04,-7.48,-7.48,0,10.39
437450,2040,2039.99,-7.59,-7.59,0,10.39
437455,2039,2038.97,-7.71,-7.71,0,10.39
437460,2045,2044.99,-7.84,-7.84,0,10.39
437465,2043,2043.03,-7.97,-7.97,0,10.39
437470,2036,2036.02,-8.1,-8.1,0,10.39
437475,2036,2035.97,-8.23,-8.23,0,10.39
437480,2039,2038.98,-8.36,-8.36,0,10.39
437485,2043,2043.05,-8.48,-8.48,0,10.39
437490,2035,2035.02,-8.59,-8.59,0,10.39
437495,2039,2038.93,-8.69,-8.69,0,10.39
437500,2040,2039.99,-8.77,-8.77,0,10.39
437505,2044,2044.1,-8.83,-8.83,0,10.39
437510,2041,2041.0,-8.88,-8.84,0,10.39
437515,2043,2042.87,-8.89,-8.84,0,10.39
437520,2038,2038.0,-8.88,-8.84,0,10.39
437525,2038,2038.16,-8.84,-8.84,0,10.39
437530,2039,2038.99,-8.76,-8.76,0,10.39
437535,2045,2044.81,-8.65,-8.65,0,10.39
437540,2038,2038.01,-8.48,-8.48,0,10.39
437545,2031,2031.2,-8.28,-8.28,0,10.39
437550,2041,2040.99,-8.02,-8.02,0,10.39
437555,2043,2042.81,-7.7,-7.7,0,10.39
437560,2040,2040.01,-7.33,-7.33,0,10.39
437565,2040,2040.17,-6.9,-6.9,0,10.39
437570,2035,2034.99,-6.41,-6.41,0,10.39
437575,2039,2038.85,-5.85,-5.85,0,10.39
437580,2041,2041.02,-5.24,-5.24,0,10.39
437585,2033,2033.13,-4.56,-4.56,0,10.39
437590,2037,2036.96,-3.82,-3.82,0,10.39
437595,2034,2033.9,-3.01,-3.01,0,10.39
437600,2040,2040.06,-2.16,-2.16,0,10.39
437605,2046,2046.09,-1.25,-1.25,0,10.39
437610,2046,2045.93,-0.3,-0.3,0,10.39
437615,2045,2044.92,0.68,0.68,0,10.39
437620,2044,2044.09,1.7,1.7,0,10.39
437625,2048,2048.07,2.73,2.73,0,10.39
437630,2052,2051.91,3.77,3.77,0,10.39
437635,2054,2053.94,4.81,4.81,0,10.39
437640,2052,2052.09,5.85,5.85,0,10.39
437645,2058,2058.05,6.87,6.87,0,10.39
437650,2061,2060.91,7.86,7.86,0,10.39
437655,2059,2058.95,8.82,8.82,0,10.39
437660,2058,2058.08,9.73,9.73,0,10.39
437665,2067,2067.04,10.59,10.59,0,10.39
437670,2057,2056.94,11.4,11.4,0,10.39
437675,2063,2062.95,12.15,12.15,0,10.39
437680,2065,2065.06,12.83,12.83,0,10.39
437685,2060,2060.06,13.44,13.44,0,10.39
437690,2067,2066.95,13.98,13.98,0,10.39
437695,2067,2066.94,14.44,14.44,0,10.39
437700,2063,2063.04,14.83,14.83,0,10.39
437705,2069,2069.06,15.14,15.14,0,10.39
437710,2065,2064.97,15.37,15.37,0,10.39
437715,2062,2061.94,15.53,15.53,0,10.39
437720,2066,2066.02,15.62,15.53,0,10.39
437725,2063,2063.07,15.64,15.53,0,10.39
437730,2062,2061.99,15.59,15.53,0,10.39
437735,2064,2063.92,15.49,15.49,0,10.39
437740,2065,2065.01,15.32,15.32,0,10.39
437745,2058,2058.08,15.1,15.1,0,10.39
437750,2062,2061.99,14.84,14.84,0,10.39
437755,2061,2060.92,14.53,14.53,0,10.39
437760,2058,2058.01,14.18,14.18,0,10.39
437765,2061,2061.08,13.79,13.79,0,10.39
437770,2057,2056.99,13.38,13.38,0,10.39
437775,2055,2054.92,12.95,12.95,0,10.39
437780,2057,2057.01,12.49,12.49,0,10.39
437785,2059,2059.09,12.01,12.01,0,10.39
437790,2057,2056.99,11.52,11.52,0,10.39
437795,2060,2059.9,11.02,11.02,0,10.39
437800,2056,2056.0,10.51,10.51,0,10.39
437805,2058,2058.11,9.99,9.99,0,10.39
437810,2058,2058.0,9.46,9.46,0,10.39
437815,2059,2058.88,8.94,8.94,0,10.39
437820,2055,2054.99,8.42,8.42,0,10.39
437825,2056,2056.12,7.9,7.9,0,10.39
437830,2058,2058.02,7.39,7.39,0,10.39
437835,2058,2057.88,6.89,6.89,0,10.39
437840,2053,2052.96,6.41,6.41,0,10.39
437845,2048,2048.12,5.94,5.94,0,10.39
437850,2053,2053.06,5.49,5.49,0,10.39
437855,2052,2051.9,5.06,5.06,0,10.39
437860,2050,2049.92,4.66,4.66,0,10.39
437865,2049,2049.08,4.29,4.29,0,10.39
437870,2047,2047.1,3.95,3.95,0,10.39
437875,2049,2048.94,3.64,3.64,0,10.39
437880,2046,2045.87,3.35,3.35,0,10.39
437885,2048,2048.04,3.1,3.1,0,10.39
437890,2049,2049.15,2.88,2.88,0,10.39
437895,2048,2047.99,2.69,2.69,0,10.39
437900,2051,2050.82,2.52,2.52,0,10.39
437905,2047,2046.99,2.37,2.37,0,10.39
437910,2048,2048.2,2.25,2.25,0,10.39
437915,2051,2051.04,2.14,2.14,0,10.39
437920,2048,2047.78,2.05,2.05,0,10.39
437925,2051,2050.93,1.97,1.97,0,10.39
437930,2052,2052.25,1.89,1.89,0,10.39
437935,2055,2055.1,1.83,1.83,0,10.39
437940,2052,2051.72,1.76,1.76,0,10.39
437945,2046,2045.86,1.7,1.7,0,10.39
437950,2049,2049.3,1.63,1.63,0,10.39
437955,2046,2046.19,1.56,1.56,0,10.39
437960,2050,2049.67,1.48,1.48,0,10.39
437965,2054,2053.77,1.4,1.4,0,10.39
437970,2045,2045.35,1.31,1.31,0,10.39
437975,2049,2049.27,1.21,1.21,0,10.39
437980,2055,2054.63,1.09,1.09,0,10.39
437985,2048,2047.7,0.97,0.97,0,10.39
437990,2046,2046.37,0.83,0.83,0,10.39
437995,2046,2046.34,0.67,0.67,0,10.39
438000,2044,2043.64,0.51,0.51,0,10.39
438005,2046,2045.63,0.32,0.32,0,10.39
438010,2052,2052.37,0.13,0.13,0,10.39
438015,2047,2047.4,-0.09,-0.09,0,10.39
438020,2051,2050.62,-0.32,-0.32,0,10.39
438025,2047,2046.56,-0.57,-0.57,0,10.39
438030,2050,2050.39,-0.83,-0.83,0,10.39
438035,2047,2047.48,-1.12,-1.12,0,10.39
438040,2045,2044.59,-1.41,-1.41,0,10.39
438045,2050,2049.48,-1.72,-1.72,0,10.39
438050,2050,2050.44,-2.04,-2.04,0,10.39
438055,2043,2043.55,-2.37,-2.37,0,10.39
438060,2049,2048.53,-2.7,-2.7,0,10.39
438065,2047,2046.43,-3.04,-3.04,0,10.39
438070,2045,2045.5,-3.38,-3.38,0,10.39
438075,2039,2039.59,-3.71,-3.71,0,10.39
438080,2047,2046.48,-4.04,-4.04,0,10.39
438085,2042,2041.39,-4.35,-4.35,0,10.39
438090,2039,2039.54,-4.65,-4.65,0,10.39
438095,2041,2041.62,-4.92,-4.92,0,10.39
438100,2041,2040.44,-5.18,-5.18,0,10.39
438105,2041,2040.37,-5.41,-5.41,0,10.39
438110,2040,2040.57,-5.61,-5.61,0,10.39
438115,2035,2035.64,-5.78,-5.78,0,10.39
438120,2047,2046.41,-5.92,-5.92,0,10.39
438125,2040,2039.35,-6.02,-6.02,0,10.39
438130,2036,2036.59,-6.1,-6.1,0,10.39
438135,2036,2036.65,-6.14,-6.1,0,10.39
438140,2040,2039.42,-6.14,-6.1,0,10.39
438145,2039,2038.36,-6.11,-6.1,0,10.39
438150,2035,2035.57,-6.05,-6.05,0,10.39
438155,2036,2036.64,-5.96,-5.96,0,10.39
438160,2038,2037.45,-5.85,-5.85,0,10.39
438165,2039,2038.37,-5.71,-5.71,0,10.39
438170,2039,2039.53,-5.56,-5.56,0,10.39
438175,2050,2050.63,-5.39,-5.39,0,10.39
438180,2043,2042.48,-5.22,-5.22,0,10.39
438185,2048,2047.36,-5.05,-5.05,0,10.39
438190,2042,2042.5,-4.87,-4.87,0,10.39
438195,2042,2042.65,-4.71,-4.71,0,10.39
438200,2047,2046.52,-4.55,-4.55,0,10.39
438205,2048,2047.35,-4.4,-4.4,0,10.39
438210,2046,2046.45,-4.28,-4.28,0,10.39
438215,2047,2047.65,-4.16,-4.16,0,10.39
438220,2047,2046.57,-4.07,-4.07,0,10.39
438225,2051,2050.35,-4.0,-4.0,0,10.39
438230,2044,2044.4,-3.95,-3.95,0,10.39
438235,2046,2046.65,-3.92,-3.92,0,10.39
438240,2045,2044.63,-3.9,-3.92,0,10.39
438245,2043,2042.36,-3.9,-3.92,0,10.39
438250,2042,2042.34,-3.92,-3.92,0,10.39
438255,2041,2041.64,-3.94,-3.94,0,10.39
438260,2041,2040.69,-3.98,-3.98,0,10.39
438265,2042,2041.37,-4.02,-4.02,0,10.39
438270,2043,2043.29,-4.07,-4.07,0,10.39
438275,2039,2039.63,-4.13,-4.13,0,10.39
438280,2046,2045.74,-4.19,-4.19,0,10.39
438285,2045,2044.38,-4.25,-4.25,0,10.39
438290,2043,2043.23,-4.31,-4.31,0,10.39
438295,2043,2043.61,-4.38,-4.38,0,10.39
438300,2037,2036.8,-4.44,-4.44,0,10.39
438305,2043,2042.4,-4.51,-4.51,0,10.39
438310,2045,2045.18,-4.57,-4.57,0,10.39
438315,2040,2040.58,-4.63,-4.63,0,10.39
438320,2040,2039.82,-4.68,-4.68,0,10.39
438325,2050,2049.44,-4.73,-4.73,0,10.39
438330,2040,2040.17,-4.78,-4.78,0,10.39
438335,2042,2042.53,-4.83,-4.83,0,10.39
438340,2042,2041.83,-4.87,-4.87,0,10.39
438345,2042,2041.5,-4.91,-4.91,0,10.39
438350,2045,2045.16,-4.94,-4.94,0,10.39
438355,2042,2042.46,-4.97,-4.97,0,10.39
438360,2041,2040.84,-4.99,-4.99,0,10.39
438365,2038,2037.57,-5.01,-5.01,0,10.39
438370,2040,2040.17,-5.03,-5.03,0,10.39
438375,2049,2049.41,-5.04,-5.04,0,10.39
438380,2041,2040.83,-5.05,-5.05,0,10.39
438385,2043,2042.59,-5.06,-5.06,0,10.39
438390,2045,2045.18,-5.06,-5.06,0,10.39
438395,2039,2039.41,-5.06,-5.06,0,10.39
438400,2046,2045.82,-5.06,-5.06,0,10.39
438405,2049,2048.6,-5.06,-5.06,0,10.39
438410,2048,2048.19,-5.06,-5.06,0,10.39
438415,2046,2046.38,-5.05,-5.05,0,10.39
438420,2048,2047.8,-5.04,-5.04,0,10.39
438425,2045,2044.64,-5.03,-5.03,0,10.39
438430,2045,2045.21,-5.0,-5.0,0,10.39
438435,2045,2045.34,-4.96,-4.96,0,10.39
438440,2049,2048.78,-4.91,-4.91,0,10.39
438445,2040,2039.67,-4.83,-4.83,0,10.39
438450,2042,2042.22,-4.73,-4.73,0,10.39
438455,2042,2042.32,-4.6,-4.6,0,10.39
438460,2042,2041.79,-4.44,-4.44,0,10.39
438465,2042,2041.69,-4.24,-4.24,0,10.39
438470,2043,2043.21,-4.0,-4.0,0,10.39
438475,2045,2045.31,-3.72,-3.72,0,10.39
438480,2039,2038.79,-3.39,-3.39,0,10.39
438485,2043,2042.69,-3.02,-3.02,0,10.39
438490,2043,2043.21,-2.61,-2.61,0,10.39
438495,2044,2044.32,-2.14,-2.14,0,10.39
438500,2041,2040.78,-1.63,-1.63,0,10.39
438505,2042,2041.68,-1.08,-1.08,0,10.39
438510,2042,2042.24,-0.48,-0.48,0,10.39
438515,2047,2047.34,0.16,0.16,0,10.39
438520,2047,2046.75,0.83,0.83,0,10.39
438525,2044,2043.64,1.53,1.53,0,10.39
438530,2049,2049.26,2.26,2.26,0,10.39
438535,2048,2048.38,3.01,3.01,0,10.39
438540,2050,2049.73,3.78,3.78,0,10.39
438545,2059,2058.6,4.54,4.54,0,10.39
438550,2046,2046.28,5.31,5.31,0,10.39
438555,2052,2052.41,6.07,6.07,0,10.39
438560,2057,2056.73,6.81,6.81,0,10.39
438565,2061,2060.59,7.52,7.52,0,10.39
438570,2057,2057.27,8.21,8.21,0,10.39
438575,2065,2065.41,8.85,8.85,0,10.39
438580,2062,2061.75,9.45,9.45,0,10.39
438585,2062,2061.58,10.0,10.0,0,10.39
438590,2062,2062.24,10.5,10.5,0,10.39
438595,2065,2065.42,10.93,10.93,0,10.39
438600,2060,2059.77,11.31,11.31,0,10.39
438605,2064,2063.56,11.62,11.62,0,10.39
438610,2061,2061.22,11.87,11.87,0,10.39
438615,2061,2061.45,12.05,12.05,0,10.39
438620,2062,2061.79,12.17,12.16,0,10.39
438625,2066,2065.54,12.23,12.16,0,10.39
438630,2064,2064.21,12.22,12.16,0,10.39
438635,2061,2061.46,12.16,12.16,0,10.39
438640,2065,2064.8,12.03,12.03,0,10.39
438645,2064,2063.54,11.86,11.86,0,10.39
438650,2060,2060.19,11.63,11.63,0,10.39
438655,2057,2057.46,11.36,11.36,0,10.39
438660,2055,2054.82,11.05,11.05,0,10.39
438665,2056,2055.55,10.7,10.7,0,10.39
438670,2057,2057.18,10.32,10.32,0,10.39
438675,2061,2061.44,9.92,9.92,0,10.39
438680,2057,2056.82,9.49,9.49,0,10.39
438685,2058,2057.55,9.04,9.04,0,10.39
438690,2056,2056.17,8.58,8.58,0,10.39
438695,2059,2059.45,8.11,8.11,0,10.39
438700,2055,2054.83,7.62,7.62,0,10.39
438705,2054,2053.54,7.14,7.14,0,10.39
438710,2056,2056.17,6.66,6.66,0,10.39
438715,2052,2052.48,6.17,6.17,0,10.39
438720,2053,2052.82,5.7,5.7,0,10.39
438725,2056,2055.51,5.24,5.24,0,10.39
438730,2052,2052.18,4.78,4.78,0,10.39
438735,2054,2054.5,4.35,4.35,0,10.39
438740,2054,2053.81,3.93,3.93,0,10.39
438745,2057,2056.49,3.53,3.53,0,10.39
438750,2048,2048.19,3.15,3.15,0,10.39
438755,2047,2047.51,2.79,2.79,0,10.39
438760,2052,2051.82,2.46,2.46,0,10.39
438765,2055,2054.5,2.16,2.16,0,10.39
438770,2054,2054.17,1.89,1.89,0,10.39
438775,2043,2043.48,1.64,1.64,0,10.39
438780,2055,2054.84,1.42,1.42,0,10.39
438785,2049,2048.56,1.24,1.24,0,10.39
438790,2051,2051.15,1.08,1.08,0,10.39
438795,2049,2049.4,0.95,0.95,0,10.39
438800,2043,2042.85,0.86,0.86,0,10.39
438805,2047,2046.63,0.79,0.79,0,10.39
438810,2049,2049.15,0.75,0.76,0,10.39
438815,2052,2052.34,0.73,0.76,0,10.39
438820,2048,2047.84,0.73,0.76,0,10.39
438825,2045,2044.68,0.76,0.76,0,10.39
438830,2042,2042.16,0.8,0.8,0,10.39
438835,2051,2051.31,0.85,0.85,0,10.39
438840,2053,2052.84,0.9,0.9,0,10.39
438845,2053,2052.69,0.96,0.96,0,10.39
438850,2054,2054.15,1.01,1.01,0,10.39
438855,2055,2055.3,1.06,1.06,0,10.39
438860,2052,2051.86,1.09,1.08,0,10.39
438865,2053,2052.7,1.11,1.08,0,10.39
438870,2058,2058.13,1.1,1.08,0,10.39
438875,2051,2051.3,1.08,1.08,0,10.39
438880,2055,2054.87,1.03,1.03,0,10.39
438885,2049,2048.7,0.95,0.95,0,10.39
438890,2058,2058.14,0.86,0.86,0,10.39
438895,2051,2051.3,0.73,0.73,0,10.39
438900,2055,2054.85,0.58,0.58,0,10.39
438905,2053,2052.7,0.41,0.41,0,10.39
438910,2051,2051.16,0.21,0.21,0,10.39
438915,2052,2052.31,-0.01,-0.01,0,10.39
438920,2046,2045.82,-0.25,-0.25,0,10.39
438925,2050,2049.69,-0.5,-0.5,0,10.39
438930,2047,2047.19,-0.77,-0.77,0,10.39
438935,2043,2043.31,-1.04,-1.04,0,10.39
438940,2048,2047.79,-1.33,-1.33,0,10.39
438945,2050,2049.69,-1.63,-1.63,0,10.39
438950,2049,2049.23,-1.93,-1.93,0,10.39
438945,2050,2050.3,-2.23,-2.23,0,10.39
438955,2048,2047.75,-2.54,-2.54,0,10.39
438960,2049,2048.71,-2.85,-2.85,0,10.39
438965,2050,2050.27,-3.16,-3.16,0,10.39
438970,2045,2045.28,-3.47,-3.47,0,10.39
438975,2044,2043.7,-3.77,-3.77,0,10.39
438980,2047,2046.74,-4.07,-4.07,0,10.39
438985,2041,2041.33,-4.36,-4.36,0,10.39
438990,2047,2047.25,-4.63,-4.63,0,10.39
438995,2050,2049.64,-4.9,-4.9,0,10.39
439000,2051,2050.77,-5.15,-5.15,0,10.39
439005,2038,2038.37,-5.39,-5.39,0,10.39
439010,2045,2045.21,-5.62,-5.62,0,10.39
439015,2042,2041.63,-5.83,-5.83,0,10.39
439020,2045,2044.82,-6.01,-6.01,0,10.39
439025,2041,2041.37,-6.19,-6.19,0,10.39
439030,2046,2046.16,-6.34,-6.34,0,10.39
439035,2045,2044.63,-6.47,-6.47,0,10.39
439040,2043,2042.87,-6.59,-6.59,0,10.39
439045,2042,2042.36,-6.69,-6.69,0,10.39
439050,2046,2046.12,-6.78,-6.78,0,10.39
439055,2044,2043.65,-6.84,-6.84,0,10.39
439060,2048,2047.9,-6.9,-6.9,0,10.39
439065,2038,2038.33,-6.94,-6.94,0,10.39
439070,2051,2051.08,-6.96,-6.96,0,10.39
439075,2043,2042.69,-6.98,-6.96,0,10.39
439080,2044,2043.92,-6.98,-6.96,0,10.39
439085,2046,2046.29,-6.98,-6.96,0,10.39
439090,2049,2049.08,-6.96,-6.96,0,10.39
439095,2045,2044.73,-6.94,-6.94,0,10.39
439100,2043,2042.92,-6.91,-6.91,0,10.39
439105,2042,2042.26,-6.87,-6.87,0,10.39
439110,2044,2044.1,-6.82,-6.82,0,10.39
439115,2044,2043.77,-6.77,-6.77,0,10.39
439120,2044,2043.89,-6.71,-6.71,0,10.39
439125,2047,2047.21,-6.65,-6.65,0,10.39
439130,2044,2044.12,-6.59,-6.59,0,10.39
439135,2047,2046.8,-6.52,-6.52,0,10.39
439140,2045,2044.86,-6.45,-6.45,0,10.39
439145,2040,2040.18,-6.39,-6.39,0,10.39
439150,2051,2051.16,-6.32,-6.32,0,10.39
439155,2043,2042.85,-6.26,-6.26,0,10.39
439160,2044,2043.82,-6.2,-6.2,0,10.39
439165,2044,2044.12,-6.15,-6.15,0,10.39
439170,2047,2047.22,-6.11,-6.11,0,10.39
439175,2043,2042.91,-6.07,-6.07,0,10.39
439180,2053,2052.75,-6.05,-6.05,0,10.39
439185,2048,2048.07,-6.04,-6.05,0,10.39
439190,2050,2050.28,-6.04,-6.05,0,10.39
439195,2044,2043.95,-6.05,-6.05,0,10.39
439200,2050,2049.7,-6.08,-6.08,0,10.39
439205,2046,2046.04,-6.12,-6.12,0,10.39
439210,2042,2042.32,-6.18,-6.18,0,10.39
439215,2047,2046.97,-6.25,-6.25,0,10.39
439220,2047,2046.66,-6.33,-6.33,0,10.39
439225,2046,2046.02,-6.42,-6.42,0,10.39
439230,2044,2044.35,-6.52,-6.52,0,10.39
439235,2049,2049.0,-6.64,-6.64,0,10.39
439240,2048,2047.65,-6.77,-6.77,0,10.39
439245,2043,2042.98,-6.91,-6.91,0,10.39
439250,2048,2048.35,-7.05,-7.05,0,10.39
439255,2048,2048.05,-7.2,-7.2,0,10.39
439260,2045,2044.64,-7.36,-7.36,0,10.39
439265,2046,2045.92,-7.53,-7.53,0,10.39
439270,2047,2047.37,-7.69,-7.69,0,10.39
439275,2046,2046.12,-7.86,-7.86,0,10.39
439280,2052,2051.62,-8.02,-8.02,0,10.39
439285,2045,2044.84,-8.18,-8.18,0,10.39
439290,2046,2046.38,-8.33,-8.33,0,10.39
439295,2041,2041.19,-8.47,-8.47,0,10.39
439300,2044,2043.62,-8.6,-8.6,0,10.39
439305,2045,2044.78,-8.71,-8.71,0,10.39
439310,2047,2047.39,-8.79,-8.79,0,10.39
439315,2044,2044.25,-8.86,-8.86,0,10.39
439320,2047,2046.6,-8.89,-8.86,0,10.39
439325,2046,2045.72,-8.9,-8.86,0,10.39
439330,2054,2054.41,-8.87,-8.86,0,10.39
439335,2041,2041.3,-8.8,-8.8,0,10.39
439340,2050,2049.56,-8.7,-8.7,0,10.39
439345,2041,2040.68,-8.55,-8.55,0,10.39
439350,2039,2039.46,-8.35,-8.35,0,10.39
439355,2043,2043.34,-8.1,-8.1,0,10.39
439360,2042,2041.53,-7.79,-7.79,0,10.39
439365,2050,2049.64,-7.43,-7.43,0,10.39
439370,2044,2044.48,-7.01,-7.01,0,10.39
439375,2046,2046.37,-6.54,-6.54,0,10.39
439380,2044,2043.51,-6.01,-6.01,0,10.39
439385,2052,2051.62,-5.42,-5.42,0,10.39
439390,2045,2045.51,-4.78,-4.78,0,10.39
439395,2044,2044.38,-4.08,-4.08,0,10.39
439400,2050,2049.47,-3.33,-3.33,0,10.39
439405,2044,2043.63,-2.54,-2.54,0,10.39
439410,2049,2049.54,-1.7,-1.7,0,10.39
439415,2051,2051.37,-0.82,-0.82,0,10.39
439420,2060,2059.45,0.08,0.08,0,10.39
439425,2050,2049.63,1.02,1.02,0,10.39
439430,2055,2055.54,1.97,1.97,0,10.39
439435,2058,2058.39,2.94,2.94,0,10.39
439440,2058,2057.47,3.91,3.91,0,10.39
439445,2061,2060.59,4.88,4.88,0,10.39
439450,2056,2056.53,5.83,5.83,0,10.39
439455,2066,2066.43,6.78,6.78,0,10.39
439460,2067,2066.49,7.69,7.69,0,10.39
439465,2070,2069.55,8.58,8.58,0,10.39
439470,2074,2074.49,9.43,9.43,0,10.39
439475,2065,2065.46,10.24,10.24,0,10.39
439480,2071,2070.52,11.0,11.0,0,10.39
439485,2073,2072.53,11.71,11.71,0,10.39
439490,2071,2071.47,12.37,12.37,0,10.39
439495,2065,2065.47,12.98,12.98,0,10.39
439500,2074,2073.53,13.54,13.54,0,10.39
439505,2067,2066.53,14.04,14.04,0,10.39
439510,2077,2077.46,14.5,14.5,0,10.39
439515,2072,2072.47,14.9,14.9,0,10.39
439520,2071,2070.54,15.25,15.25,0,10.39
439525,2068,2067.53,15.55,15.55,0,10.39
439530,2067,2067.47,15.81,15.81,0,10.39
439535,2081,2081.49,16.03,16.03,0,10.39
439540,2065,2064.53,16.2,16.2,0,10.39
439545,2072,2071.48,16.34,16.34,0,10.39
439550,2066,2066.48,16.44,16.44,0,10.39
439555,2069,2069.56,16.51,16.51,0,10.39
439560,2073,2072.52,16.55,16.51,0,10.39
439565,2067,2066.4,16.56,16.51,0,10.39
439570,2069,2069.48,16.54,16.51,0,10.39
439575,2071,2071.65,16.5,16.5,0,10.39
439580,2071,2070.53,16.42,16.42,0,10.39
439585,2075,2074.3,16.32,16.32,0,10.39
439590,2072,2072.47,16.2,16.2,0,10.39
439595,2069,2069.74,16.04,16.04,0,10.39
439600,2074,2073.53,15.86,15.86,0,10.39
439605,2074,2073.22,15.66,15.66,0,10.39
439610,2077,2077.47,15.42,15.42,0,10.39
439615,2074,2074.82,15.17,15.17,0,10.39
439620,2075,2074.53,14.89,14.89,0,10.39
439625,2077,2076.15,14.58,14.58,0,10.39
439630,2070,2070.47,14.26,14.26,0,10.39
439635,2071,2071.89,13.92,13.92,0,10.39
439640,2071,2070.53,13.57,13.57,0,10.39
439645,2069,2068.08,13.22,13.22,0,10.39
439650,2066,2066.47,12.85,12.85,0,10.39
439655,2064,2064.95,12.48,12.48,0,10.39
439660,2066,2065.54,12.11,12.11,0,10.39
439665,2069,2068.02,11.75,11.75,0,10.39
439670,2070,2070.46,11.38,11.38,0,10.39
439675,2066,2067.01,11.02,11.02,0,10.39
439680,2068,2067.53,10.67,10.67,0,10.39
439685,2075,2073.97,10.33,10.33,0,10.39
439690,2059,2059.47,9.99,9.99,0,10.39
439695,2062,2063.03,9.66,9.66,0,10.39
439700,2064,2063.54,9.34,9.34,0,10.39
439705,2068,2066.97,9.04,9.04,0,10.39
439710,2064,2064.45,8.74,8.74,0,10.39
439715,2065,2066.03,8.45,8.45,0,10.39
439720,2066,2065.56,8.17,8.17,0,10.39
439725,2062,2060.97,7.89,7.89,0,10.39
439730,2061,2061.42,7.63,7.63,0,10.39
439735,2062,2063.03,7.36,7.36,0,10.39
439740,2065,2064.59,7.1,7.1,0,10.39
439745,2065,2063.97,6.84,6.84,0,10.39
439750,2066,2066.39,6.57,6.57,0,10.39
439755,2062,2063.03,6.29,6.29,0,10.39
439760,2064,2063.63,6.01,6.01,0,10.39
439765,2062,2060.96,5.71,5.71,0,10.39
439770,2065,2065.36,5.4,5.4,0,10.39
439775,2068,2069.04,5.07,5.07,0,10.39
439780,2063,2062.65,4.72,4.72,0,10.39
439785,2066,2064.94,4.35,4.35,0,10.39
439790,2061,2061.34,3.95,3.95,0,10.39
439795,2065,2066.08,3.54,3.54,0,10.39
439800,2069,2068.68,3.09,3.09,0,10.39
439805,2065,2063.89,2.63,2.63,0,10.39
439810,2058,2058.29,2.14,2.14,0,10.39
439815,2062,2063.13,1.63,1.63,0,10.39
439820,2055,2054.74,1.1,1.1,0,10.39
439825,2063,2061.84,0.56,0.56,0,10.39
439830,2060,2060.23,-0.0,-0.0,0,10.39
439835,2055,2056.18,-0.58,-0.58,0,10.39
439840,2054,2053.78,-1.16,-1.16,0,10.39
439845,2067,2065.81,-1.75,-1.75,0,10.39
439850,2057,2057.21,-2.34,-2.34,0,10.39
439855,2049,2050.19,-2.94,-2.94,0,10.39
439860,2054,2053.8,-3.53,-3.53,0,10.39
439865,2063,2061.84,-4.11,-4.11,0,10.39
439870,2054,2054.2,-4.69,-4.69,0,10.39
439875,2047,2048.12,-5.25,-5.25,0,10.39
439880,2050,2049.81,-5.8,-5.8,0,10.39
439885,2048,2046.93,-6.33,-6.33,0,10.39
439890,2049,2049.2,-6.84,-6.84,0,10.39
439895,2048,2049.02,-7.32,-7.32,0,10.39
439900,2049,2048.8,-7.78,-7.78,0,10.39
439905,2053,2052.03,-8.21,-8.21,0,10.39
439910,2051,2051.2,-8.62,-8.62,0,10.39
439915,2051,2051.92,-9.0,-9.0,0,10.39
439920,2051,2050.79,-9.36,-9.36,0,10.39
439925,2046,2045.12,-9.69,-9.69,0,10.39
439930,2043,2043.21,-10.0,-10.0,0,10.39
439935,2046,2046.84,-10.28,-10.28,0,10.39
439940,2051,2050.8,-10.53,-10.53,0,10.39
439945,2051,2050.2,-10.77,-10.77,0,10.39
439950,2046,2046.18,-10.98,-10.98,0,10.39
439955,2048,2048.75,-11.17,-11.17,0,10.39
439960,2053,2052.84,-11.35,-11.35,0,10.39
439965,2050,2049.3,-11.51,-11.51,0,10.39
439970,2050,2050.12,-11.65,-11.65,0,10.39
439975,2048,2048.66,-11.78,-11.78,0,10.39
439980,2050,2049.91,-11.89,-11.89,0,10.39
439985,2050,2049.39,-11.99,-11.99,0,10.39
439990,2051,2051.06,-12.08,-12.08,0,10.39
439995,2043,2043.56,-12.16,-12.16,0,10.39
440000,2045,2044.97,-12.22,-12.22,0,10.39
440005,2045,2044.5,-12.27,-12.27,0,10.39
440010,2045,2045.01,-12.31,-12.31,0,10.39
440015,2046,2046.44,-12.33,-12.33,0,10.39
440020,2044,2044.02,-12.35,-12.34,0,10.39
440025,2047,2046.61,-12.35,-12.34,0,10.39
440030,2048,2047.96,-12.35,-12.34,0,10.39
440035,2047,2047.33,-12.34,-12.34,0,10.39
440040,2047,2047.05,-12.33,-12.33,0,10.39
440045,2049,2048.72,-12.32,-12.32,0,10.39
440050,2046,2045.93,-12.31,-12.31,0,10.39
440055,2045,2045.22,-12.3,-12.31,0,10.39
440060,2041,2041.08,-12.3,-12.31,0,10.39
440065,2052,2051.85,-12.31,-12.31,0,10.39
440070,2054,2053.91,-12.32,-12.32,0,10.39
440075,2054,2054.09,-12.35,-12.35,0,10.39
440080,2048,2048.07,-12.39,-12.39,0,10.39
440085,2041,2040.97,-12.45,-12.45,0,10.39
440090,2046,2045.94,-12.53,-12.53,0,10.39
440095,2051,2050.99,-12.62,-12.62,0,10.39
440100,2046,2046.05,-12.72,-12.72,0,10.39
440105,2047,2047.05,-12.85,-12.85,0,10.39
440110,2047,2046.96,-12.99,-12.99,0,10.39
440115,2049,2048.92,-13.16,-13.16,0,10.39
440120,2048,2048.02,-13.34,-13.34,0,10.39
440125,2044,2044.1,-13.55,-13.55,0,10.39
440130,2050,2049.99,-13.77,-13.77,0,10.39
440135,2051,2050.88,-14.01,-14.01,0,10.39
440140,2046,2045.99,-14.27,-14.27,0,10.39
440145,2047,2047.12,-14.55,-14.55,0,10.39
440150,2045,2045.03,-14.84,-14.84,0,10.39
440155,2046,2045.87,-15.14,-15.14,0,10.39
440160,2045,2044.96,-15.45,-15.45,0,10.39
440165,2045,2045.14,-15.77,-15.77,0,10.39
440170,2047,2047.06,-16.09,-16.09,0,10.39
440175,2048,2047.86,-16.42,-16.42,0,10.39
440180,2046,2045.91,-16.74,-16.74,0,10.39
440185,2046,2046.15,-17.06,-17.06,0,10.39
440190,2047,2047.11,-17.36,-17.36,0,10.39
440195,2043,2042.85,-17.65,-17.65,0,10.39
440200,2044,2043.86,-17.93,-17.93,0,10.39
440205,2044,2044.15,-18.17,-18.17,0,10.39
440210,2041,2041.17,-18.39,-18.39,0,10.39
440215,2046,2045.84,-18.56,-18.56,0,10.39
440220,2039,2038.81,-18.7,-18.7,0,10.39
440225,2040,2040.16,-18.79,-18.72,0,10.39
440230,2041,2041.22,-18.82,-18.72,0,10.39
440235,2041,2040.84,-18.8,-18.72,0,10.39
440240,2046,2045.75,-18.72,-18.72,0,10.39
440245,2045,2045.16,-18.57,-18.57,0,10.39
440250,2044,2044.28,-18.35,-18.35,0,10.39
440255,2047,2046.84,-18.05,-18.05,0,10.39
440260,2045,2044.7,-17.68,-17.68,0,10.39
440265,2040,2040.15,-17.23,-17.23,0,10.39
440270,2039,2039.32,-16.69,-16.69,0,10.39
440275,2045,2044.86,-16.06,-16.06,0,10.39
440280,2052,2051.67,-15.34,-15.34,0,10.39
440285,2045,2045.12,-14.53,-14.53,0,10.39
440290,2046,2046.32,-13.62,-13.62,0,10.39
440295,2044,2043.89,-12.62,-12.62,0,10.39
440300,2042,2041.68,-11.52,-11.52,0,10.39
440305,2041,2041.09,-10.33,-10.33,0,10.39
440310,2041,2041.32,-9.04,-9.04,0,10.39
440315,2044,2043.93,-7.67,-7.67,0,10.39
440320,2051,2050.69,-6.22,-6.22,0,10.39
440325,2054,2054.06,-4.7,-4.7,0,10.39
440330,2053,2053.29,-3.11,-3.11,0,10.39
440335,2063,2062.95,-1.47,-1.47,0,10.39
440340,2066,2065.73,0.21,0.21,0,10.39
440345,2065,2065.03,1.92,1.92,0,10.39
440350,2064,2064.24,3.65,3.65,0,10.39
440355,2070,2069.99,5.39,5.39,0,10.39
440360,2076,2075.79,7.13,7.13,0,10.39
440365,2076,2075.99,8.85,8.85,0,10.39
440370,2076,2076.16,10.56,10.56,0,10.39
440375,2076,2076.03,12.23,12.23,0,10.39
440380,2075,2074.89,13.87,13.87,0,10.39
440385,2080,2079.96,15.46,15.46,0,10.39
440390,2083,2083.07,17.01,17.01,0,10.39
440395,2087,2087.06,18.49,18.49,0,10.39
440400,2085,2084.96,19.92,19.92,0,10.39
440405,2086,2085.92,21.27,21.27,0,10.39
440410,2093,2093.01,22.56,22.56,0,10.39
440415,2088,2088.1,23.78,23.78,0,10.39
440420,2086,2086.01,24.92,24.92,0,10.39
440425,2087,2086.87,26.0,26.0,0,10.39
440430,2087,2086.98,27.0,27.0,0,10.39
440435,2085,2085.15,27.92,27.92,0,10.39
440440,2090,2090.04,28.78,28.78,0,10.39
440445,2093,2092.83,29.56,29.56,0,10.39
440450,2093,2092.94,30.28,30.28,0,10.39
440455,2090,2090.18,30.92,30.92,0,10.39
440460,2093,2093.07,31.49,31.49,0,10.39
440465,2092,2091.81,32.0,32.0,0,10.39
440470,2090,2089.91,32.43,32.43,0,10.39
440475,2089,2089.19,32.8,32.8,0,10.39
440480,2095,2095.11,33.11,33.11,0,10.39
440485,2091,2090.8,33.34,33.34,0,10.39
440490,2093,2092.86,33.52,33.52,0,10.39
440495,2091,2091.2,33.62,33.53,0,10.39
440500,2092,2092.16,33.66,33.53,0,10.39
440505,2095,2094.8,33.63,33.53,0,10.39
440510,2097,2096.81,33.53,33.53,0,10.39
440515,2098,2098.2,33.36,33.36,0,10.39
440520,2097,2097.21,33.13,33.13,0,10.39
440525,2095,2094.8,32.82,32.82,0,10.39
440530,2096,2095.77,32.44,32.44,0,10.39
440535,2098,2098.21,31.99,31.99,0,10.39
440540,2096,2096.26,31.47,31.47,0,10.39
440545,2104,2103.78,30.89,30.89,0,10.39
440550,2096,2095.72,30.25,30.25,0,10.39
440555,2098,2098.22,29.54,29.54,0,10.39
440560,2091,2091.31,28.79,28.79,0,10.39
440565,2094,2093.78,27.98,27.98,0,10.39
440570,2087,2086.67,27.14,27.14,0,10.39
440575,2087,2087.22,26.27,26.27,0,10.39
440580,2084,2084.35,25.37,25.37,0,10.39
440585,2082,2081.79,24.45,24.45,0,10.39
440590,2083,2082.62,23.52,23.52,0,10.39
440595,2086,2086.22,22.58,22.58,0,10.39
440600,2080,2080.4,21.64,21.64,0,10.39
440605,2078,2077.77,20.7,20.7,0,10.39
440610,2081,2080.58,19.78,19.78,0,10.39
440615,2070,2070.24,18.86,18.86,0,10.39
440620,2075,2075.44,17.97,17.97,0,10.39
440625,2077,2076.76,17.09,17.09,0,10.39
440630,2079,2078.55,16.23,16.23,0,10.39
440635,2076,2076.24,15.39,15.39,0,10.39
440640,2075,2075.46,14.56,14.56,0,10.39
440645,2072,2071.76,13.76,13.76,0,10.39
440650,2074,2073.53,12.98,12.98,0,10.39
440655,2069,2069.25,12.21,12.21,0,10.39
440660,2066,2066.47,11.47,11.47,0,10.39
440665,2071,2070.75,10.73,10.73,0,10.39
440670,2073,2072.54,10.01,10.01,0,10.39
440675,2075,2075.25,9.29,9.29,0,10.39
440680,2071,2071.45,8.57,8.57,0,10.39
440685,2071,2070.74,7.86,7.86,0,10.39
440690,2074,2073.56,7.14,7.14,0,10.39
440695,2067,2067.27,6.42,6.42,0,10.39
440700,2071,2071.43,5.69,5.69,0,10.39
440705,2071,2070.73,4.94,4.94,0,10.39
440710,2071,2070.59,4.19,4.19,0,10.39
440715,2068,2068.27,3.42,3.42,0,10.39
440720,2063,2063.39,2.65,2.65,0,10.39
440725,2072,2071.73,1.86,1.86,0,10.39
440730,2065,2064.64,1.06,1.06,0,10.39
440735,2061,2061.25,0.25,0.25,0,10.39
440740,2061,2061.33,-0.57,-0.57,0,10.39
440745,2062,2061.77,-1.39,-1.39,0,10.39
440750,2061,2060.7,-2.21,-2.21,0,10.39
440755,2058,2058.21,-3.03,-3.03,0,10.39
440760,2058,2058.27,-3.85,-3.85,0,10.39
440765,2052,2051.81,-4.66,-4.66,0,10.39
440770,2052,2051.76,-5.45,-5.45,0,10.39
440775,2056,2056.17,-6.24,-6.24,0,10.39
440780,2052,2052.22,-7.01,-7.01,0,10.39
440785,2050,2049.84,-7.76,-7.76,0,10.39
440790,2050,2049.81,-8.49,-8.49,0,10.39
440795,2052,2052.16,-9.21,-9.21,0,10.39
440800,2053,2053.18,-9.9,-9.9,0,10.39
440805,2056,2055.84,-10.57,-10.57,0,10.39
440810,2047,2046.84,-11.22,-11.22,0,10.39
440815,2049,2049.15,-11.85,-11.85,0,10.39
440820,2046,2046.15,-12.45,-12.45,0,10.39
440825,2052,2051.87,-13.03,-13.03,0,10.39
440830,2050,2049.86,-13.58,-13.58,0,10.39
440835,2048,2048.11,-14.1,-14.1,0,10.39
440840,2045,2045.13,-14.6,-14.6,0,10.39
440845,2046,2045.91,-15.07,-15.07,0,10.39
440850,2046,2045.9,-15.51,-15.51,0,10.39
440855,2044,2044.07,-15.92,-15.92,0,10.39
440860,2042,2042.08,-16.3,-16.3,0,10.39
440865,2045,2044.95,-16.65,-16.65,0,10.39
440870,2039,2038.94,-16.97,-16.97,0,10.39
440875,2044,2044.02,-17.26,-17.26,0,10.39
440880,2045,2045.04,-17.52,-17.52,0,10.39
440885,2047,2047.0,-17.75,-17.75,0,10.39
440890,2042,2041.97,-17.95,-17.95,0,10.39
440895,2044,2043.97,-18.13,-18.13,0,10.39
440900,2038,2038.01,-18.28,-18.28,0,10.39
440905,2039,2039.06,-18.4,-18.4,0,10.39
440910,2039,2039.0,-18.5,-18.5,0,10.39
440915,2044,2043.91,-18.58,-18.58,0,10.39
440920,2044,2043.98,-18.63,-18.63,0,10.39
440925,2042,2042.1,-18.67,-18.67,0,10.39
440930,2041,2041.02,-18.7,-18.69,0,10.39
440935,2042,2041.88,-18.71,-18.69,0,10.39
440940,2041,2040.97,-18.7,-18.69,0,10.39
440945,2037,2037.14,-18.69,-18.69,0,10.39
440950,2038,2038.03,-18.68,-18.68,0,10.39
440955,2043,2042.86,-18.66,-18.66,0,10.39
440960,2048,2047.97,-18.64,-18.64,0,10.39
440965,2046,2046.15,-18.62,-18.62,0,10.39
440970,2046,2046.01,-18.61,-18.62,0,10.39
440975,2043,2042.84,-18.61,-18.62,0,10.39
440980,2047,2047.0,-18.62,-18.62,0,10.39
440985,2044,2044.17,-18.64,-18.64,0,10.39
440990,2041,2040.98,-18.67,-18.67,0,10.39
440995,2041,2040.81,-18.71,-18.71,0,10.39
441000,2040,2040.04,-18.75,-18.75,0,10.39
441005,2039,2039.21,-18.81,-18.81,0,10.39
441010,2043,2042.93,-18.87,-18.87,0,10.39
441015,2040,2039.78,-18.95,-18.95,0,10.39
441020,2042,2042.08,-19.03,-19.03,0,10.39
441025,2038,2038.24,-19.12,-19.12,0,10.39
441030,2041,2040.9,-19.21,-19.21,0,10.39
441035,2045,2044.75,-19.32,-19.32,0,10.39
441040,2035,2035.12,-19.43,-19.43,0,10.39
441045,2034,2034.24,-19.54,-19.54,0,10.39
441050,2038,2037.87,-19.66,-19.66,0,10.39
441055,2040,2039.77,-19.79,-19.79,0,10.39
441060,2042,2042.14,-19.93,-19.93,0,10.39
441065,2038,2038.21,-20.08,-20.08,0,10.39
441070,2038,2037.85,-20.23,-20.23,0,10.39
441075,2040,2039.81,-20.4,-20.4,0,10.39
441080,2040,2040.18,-20.57,-20.57,0,10.39
441085,2042,2042.17,-20.76,-20.76,0,10.39
441090,2045,2044.81,-20.96,-20.96,0,10.39
441095,2044,2043.85,-21.17,-21.17,0,10.39
441100,2039,2039.21,-21.38,-21.38,0,10.39
441105,2038,2038.13,-21.61,-21.61,0,10.39
441110,2039,2038.78,-21.85,-21.85,0,10.39
441115,2040,2039.9,-22.08,-22.08,0,10.39
441120,2039,2039.23,-22.32,-22.32,0,10.39
441125,2043,2043.07,-22.55,-22.55,0,10.39
441130,2042,2041.77,-22.78,-22.78,0,10.39
441135,2036,2035.95,-22.99,-22.99,0,10.39
441140,2037,2037.24,-23.19,-23.19,0,10.39
441145,2036,2036.03,-23.37,-23.37,0,10.39
441150,2035,2034.76,-23.52,-23.52,0,10.39
441155,2038,2037.99,-23.64,-23.64,0,10.39
441160,2038,2038.24,-23.72,-23.67,0,10.39
441165,2041,2040.99,-23.75,-23.67,0,10.39
441170,2035,2034.75,-23.74,-23.67,0,10.39
441175,2038,2038.02,-23.67,-23.67,0,10.39
441180,2033,2033.27,-23.54,-23.54,0,10.39
441185,2039,2038.97,-23.35,-23.35,0,10.39
441190,2040,2039.73,-23.08,-23.08,0,10.39
441195,2034,2034.04,-22.74,-22.74,0,10.39
441200,2038,2038.27,-22.31,-22.31,0,10.39
441205,2039,2038.96,-21.79,-21.79,0,10.39
441210,2043,2042.73,-21.19,-21.19,0,10.39
441215,2039,2039.03,-20.48,-20.48,0,10.39
441220,2041,2041.26,-19.68,-19.68,0,10.39
441225,2038,2037.97,-18.77,-18.77,0,10.39
441230,2038,2037.74,-17.75,-17.75,0,10.39
441235,2035,2035.03,-16.63,-16.63,0,10.39
441240,2039,2039.26,-15.38,-15.38,0,10.39
441245,2044,2043.98,-14.03,-14.03,0,10.39
441250,2044,2043.75,-12.57,-12.57,0,10.39
441255,2041,2041.0,-11.0,-11.0,0,10.39
441260,2045,2045.25,-9.32,-9.32,0,10.39
441265,2046,2046.03,-7.54,-7.54,0,10.39
441270,2045,2044.76,-5.67,-5.67,0,10.39
441275,2050,2049.94,-3.72,-3.72,0,10.39
441280,2052,2052.24,-1.68,-1.68,0,10.39
441285,2051,2051.08,0.41,0.41,0,10.39
441290,2059,2058.76,2.57,2.57,0,10.39
441295,2067,2066.9,4.76,4.76,0,10.39
441300,2067,2067.25,6.97,6.97,0,10.39
441305,2069,2069.1,9.2,9.2,0,10.39
441310,2073,2072.75,11.43,11.43,0,10.39
441315,2074,2073.9,13.64,13.64,0,10.39
441320,2080,2080.26,15.82,15.82,0,10.39
441325,2086,2086.11,17.96,17.96,0,10.39
441330,2090,2089.74,20.04,20.04,0,10.39
441335,2091,2090.87,22.05,22.05,0,10.39
441340,2090,2090.26,24.0,24.0,0,10.39
441345,2087,2087.13,25.86,25.86,0,10.39
441350,2088,2087.74,27.63,27.63,0,10.39
441355,2096,2095.87,29.31,29.31,0,10.39
441360,2092,2092.27,30.9,30.9,0,10.39
441365,2088,2088.12,32.38,32.38,0,10.39
441370,2094,2093.73,33.77,33.77,0,10.39
441375,2096,2095.9,35.05,35.05,0,10.39
441380,2093,2093.28,36.22,36.22,0,10.39
441385,2098,2098.07,37.29,37.29,0,10.39
441390,2095,2094.71,38.26,38.26,0,10.39
441395,2093,2092.95,39.12,39.12,0,10.39
441400,2098,2098.29,39.88,39.88,0,10.39
441405,2098,2098.04,40.53,40.53,0,10.39
441410,2100,2099.7,41.07,41.07,0,10.39
441415,2095,2094.97,41.52,41.52,0,10.39
441420,2095,2095.3,41.86,41.86,0,10.39
441425,2096,2096.02,42.09,42.09,0,10.39
441430,2105,2104.7,42.22,42.09,0,10.39
441435,2100,2099.99,42.26,42.09,0,10.39
441440,2101,2101.28,42.18,42.09,0,10.39
441445,2100,2100.0,42.01,42.01,0,10.39
441450,2104,2103.73,41.74,41.74,0,10.39
441455,2098,2098.01,41.37,41.37,0,10.39
441460,2101,2101.24,40.91,40.91,0,10.39
441465,2101,2100.99,40.35,40.35,0,10.39
441470,2103,2102.78,39.7,39.7,0,10.39
441475,2101,2101.02,38.97,38.97,0,10.39
441480,2097,2097.19,38.15,38.15,0,10.39
441485,2096,2095.98,37.26,37.26,0,10.39
441490,2096,2095.84,36.3,36.3,0,10.39
441495,2097,2097.04,35.28,35.28,0,10.39
441500,2101,2101.13,34.19,34.19,0,10.39
441505,2095,2094.95,33.06,33.06,0,10.39
441510,2091,2090.89,31.89,31.89,0,10.39
441515,2090,2090.06,30.69,30.69,0,10.39
441520,2083,2083.1,29.46,29.46,0,10.39
441525,2087,2086.93,28.22,28.22,0,10.39
441530,2086,2085.92,26.98,26.98,0,10.39
441535,2080,2080.08,25.74,25.74,0,10.39
441540,2082,2082.05,24.51,24.51,0,10.39
441545,2079,2078.91,23.3,23.3,0,10.39
441550,2074,2073.98,22.12,22.12,0,10.39
441555,2073,2073.09,20.98,20.98,0,10.39
441560,2061,2061.0,19.87,19.87,0,10.39
441565,2067,2066.91,18.81,18.81,0,10.39
441570,2069,2069.05,17.79,17.79,0,10.39
441575,2073,2073.1,16.82,16.82,0,10.39
441580,2073,2072.91,15.9,15.9,0,10.39
441585,2067,2066.88,15.01,15.01,0,10.39
441590,2073,2073.13,14.17,14.17,0,10.39
441595,2074,2074.14,13.36,13.36,0,10.39
441600,2071,2070.82,12.58,12.58,0,10.39
441605,2071,2070.82,11.83,11.83,0,10.39
441610,2067,2067.22,11.1,11.1,0,10.39
441615,2064,2064.21,10.4,10.4,0,10.39
441620,2069,2068.74,9.7,9.7,0,10.39
441625,2068,2067.76,9.02,9.02,0,10.39
441630,2066,2066.3,8.35,8.35,0,10.39
441635,2065,2065.26,7.67,7.67,0,10.39
441640,2069,2068.67,6.99,6.99,0,10.39
441645,2069,2068.73,6.31,6.31,0,10.39
441650,2064,2064.36,5.61,5.61,0,10.39
441655,2063,2063.29,4.9,4.9,0,10.39
441660,2071,2070.62,4.18,4.18,0,10.39
441665,2064,2063.71,3.43,3.43,0,10.39
441670,2059,2059.39,2.67,2.67,0,10.39
441675,2064,2064.3,1.89,1.89,0,10.39
441680,2065,2064.61,1.09,1.09,0,10.39
441685,2057,2056.69,0.27,0.27,0,10.39
441690,2057,2057.38,-0.56,-0.56,0,10.39
441695,2064,2064.34,-1.41,-1.41,0,10.39
441700,2058,2057.63,-2.26,-2.26,0,10.39
441705,2056,2055.63,-3.12,-3.12,0,10.39
441710,2049,2049.35,-3.99,-3.99,0,10.39
441715,2048,2048.41,-4.84,-4.84,0,10.39
441720,2045,2044.68,-5.7,-5.7,0,10.39
441725,2047,2046.56,-6.53,-6.53,0,10.39
441730,2044,2044.3,-7.36,-7.36,0,10.39
441735,2045,2045.47,-8.17,-8.17,0,10.39
441740,2051,2050.72,-8.95,-8.95,0,10.39
441745,2047,2046.5,-9.72,-9.72,0,10.39
441750,2044,2044.24,-10.46,-10.46,0,10.39
441755,2039,2039.53,-11.18,-11.18,0,10.39
441760,2046,2045.79,-11.87,-11.87,0,10.39
441765,2047,2046.46,-12.54,-12.54,0,10.39
441770,2045,2045.16,-13.18,-13.18,0,10.39
441775,2040,2040.55,-13.8,-13.8,0,10.39
441780,2041,2040.87,-14.38,-14.38,0,10.39
441785,2041,2040.45,-14.94,-14.94,0,10.39
441790,2041,2041.09,-15.47,-15.47,0,10.39
441795,2037,2037.56,-15.97,-15.97,0,10.39
441800,2039,2038.94,-16.44,-16.44,0,10.39
441805,2037,2036.44,-16.89,-16.89,0,10.39
441810,2042,2042.03,-17.3,-17.3,0,10.39
441815,2041,2041.56,-17.69,-17.69,0,10.39
441820,2039,2039.0,-18.06,-18.06,0,10.39
441825,2039,2038.43,-18.4,-18.4,0,10.39
441830,2037,2036.98,-18.71,-18.71,0,10.39
441835,2035,2035.58,-19.0,-19.0,0,10.39
441840,2038,2038.05,-19.26,-19.26,0,10.39
441845,2031,2030.41,-19.5,-19.5,0,10.39
441850,2036,2035.92,-19.72,-19.72,0,10.39
441855,2037,2037.61,-19.92,-19.92,0,10.39
441860,2038,2038.11,-20.09,-20.09,0,10.39
441865,2039,2038.36,-20.24,-20.24,0,10.39
441870,2031,2030.85,-20.38,-20.38,0,10.39
441875,2033,2033.66,-20.5,-20.5,0,10.39
441880,2037,2037.2,-20.6,-20.6,0,10.39
441885,2035,2034.32,-20.68,-20.68,0,10.39
441890,2039,2038.75,-20.75,-20.75,0,10.39
441895,2033,2033.69,-20.81,-20.81,0,10.39
441900,2037,2037.3,-20.86,-20.86,0,10.39
441905,2032,2031.29,-20.89,-20.89,0,10.39
441910,2037,2036.65,-20.91,-20.91,0,10.39
441915,2036,2036.73,-20.92,-20.91,0,10.39
441920,2032,2032.4,-20.93,-20.91,0,10.39
441925,2033,2032.24,-20.92,-20.91,0,10.39
441930,2037,2036.56,-20.9,-20.9,0,10.39
441935,2023,2023.79,-20.88,-20.88,0,10.39
441940,2030,2030.47,-20.84,-20.84,0,10.39
441945,2038,2037.2,-20.81,-20.81,0,10.39
441950,2039,2038.51,-20.77,-20.77,0,10.39
441955,2036,2036.8,-20.72,-20.72,0,10.39
441960,2032,2032.51,-20.68,-20.68,0,10.39
441965,2037,2036.19,-20.64,-20.64,0,10.39
441970,2038,2037.49,-20.61,-20.61,0,10.39
441975,2034,2034.81,-20.58,-20.58,0,10.39
441980,2032,2032.51,-20.55,-20.55,0,10.39
441985,2038,2037.19,-20.53,-20.53,0,10.39
441990,2036,2035.49,-20.51,-20.51,0,10.39
441995,2034,2034.81,-20.5,-20.5,0,10.39
442000,2033,2033.5,-20.49,-20.5,0,10.39
442005,2034,2033.2,-20.49,-20.5,0,10.39
442010,2025,2024.5,-20.5,-20.5,0,10.39
442015,2030,2030.8,-20.5,-20.5,0,10.39
442020,2034,2034.5,-20.52,-20.52,0,10.39
442025,2031,2030.21,-20.54,-20.54,0,10.39
442030,2037,2036.48,-20.57,-20.57,0,10.39
442035,2035,2035.79,-20.61,-20.61,0,10.39
442040,2032,2032.53,-20.66,-20.66,0,10.39
442045,2041,2040.21,-20.72,-20.72,0,10.39
442050,2033,2032.46,-20.8,-20.8,0,10.39
442055,2037,2037.78,-20.88,-20.88,0,10.39
442060,2034,2034.55,-20.99,-20.99,0,10.39
442065,2035,2034.22,-21.1,-21.1,0,10.39
442070,2039,2038.45,-21.22,-21.22,0,10.39
442075,2038,2038.78,-21.36,-21.36,0,10.39
442080,2034,2034.56,-21.49,-21.49,0,10.39
442085,2041,2040.22,-21.64,-21.64,0,10.39
442090,2042,2041.45,-21.78,-21.78,0,10.39
442095,2036,2036.78,-21.91,-21.91,0,10.39
442100,2032,2032.54,-22.03,-22.03,0,10.39
442105,2035,2034.22,-22.14,-22.14,0,10.39
442110,2034,2033.49,-22.21,-22.2,0,10.39
442115,2035,2035.78,-22.25,-22.2,0,10.39
442120,2037,2037.49,-22.25,-22.2,0,10.39
442125,2031,2030.21,-22.2,-22.2,0,10.39
442130,2032,2031.52,-22.09,-22.09,0,10.39
442135,2032,2032.8,-21.92,-21.92,0,10.39
442140,2034,2034.47,-21.67,-21.67,0,10.39
442145,2033,2032.19,-21.34,-21.34,0,10.39
442150,2034,2033.53,-20.91,-20.91,0,10.39
442155,2030,2030.83,-20.4,-20.4,0,10.39
442160,2032,2032.46,-19.78,-19.78,0,10.39
442165,2034,2033.16,-19.05,-19.05,0,10.39
442170,2036,2035.54,-18.22,-18.22,0,10.39
442175,2032,2032.85,-17.26,-17.26,0,10.39
442180,2037,2037.45,-16.19,-16.19,0,10.39
442185,2039,2038.14,-15.0,-15.0,0,10.39
442190,2036,2035.56,-13.69,-13.69,0,10.39
442195,2036,2036.86,-12.26,-12.26,0,10.39
442200,2037,2037.44,-10.71,-10.71,0,10.39
442205,2037,2036.14,-9.05,-9.05,0,10.39
442210,2041,2040.57,-7.28,-7.28,0,10.39
442215,2041,2041.86,-5.4,-5.4,0,10.39
442220,2045,2045.43,-3.43,-3.43,0,10.39
442225,2046,2045.13,-1.37,-1.37,0,10.39
442230,2051,2050.57,0.76,0.76,0,10.39
442235,2054,2054.88,2.96,2.96,0,10.39
442240,2055,2055.42,5.2,5.2,0,10.39
442245,2058,2057.1,7.47,7.47,0,10.39
442250,2059,2058.58,9.76,9.76,0,10.39
442255,2066,2066.92,12.05,12.05,0,10.39
442260,2070,2070.43,14.32,14.32,0,10.39
442265,2080,2079.06,16.56,16.56,0,10.39
442270,2076,2075.57,18.75,18.75,0,10.39
442275,2083,2083.95,20.87,20.87,0,10.39
442280,2082,2082.44,22.91,22.91,0,10.39
442285,2097,2096.04,24.86,24.86,0,10.39
442290,2093,2092.55,26.7,26.7,0,10.39
442295,2086,2086.96,28.42,28.42,0,10.39
442300,2088,2088.45,30.03,30.03,0,10.39
442305,2089,2088.05,31.5,31.5,0,10.39
442310,2093,2092.56,32.85,32.85,0,10.39
442315,2092,2092.94,34.06,34.06,0,10.39
442320,2095,2095.43,35.14,35.14,0,10.39
442325,2094,2093.06,36.08,36.08,0,10.39
442330,2091,2090.57,36.88,36.88,0,10.39
442335,2094,2094.93,37.55,37.55,0,10.39
442340,2085,2085.42,38.09,38.09,0,10.39
442345,2094,2093.07,38.51,38.51,0,10.39
442350,2093,2092.59,38.79,38.79,0,10.39
442355,2091,2091.93,38.96,38.79,0,10.39
442360,2093,2093.4,39.01,38.79,0,10.39
442365,2091,2090.07,38.95,38.79,0,10.39
442370,2091,2090.62,38.79,38.79,0,10.39
442375,2090,2090.93,38.51,38.51,0,10.39
442380,2088,2088.37,38.15,38.15,0,10.39
442385,2096,2095.07,37.68,37.68,0,10.39
442390,2094,2093.65,37.14,37.14,0,10.39
442395,2083,2083.92,36.5,36.5,0,10.39
442400,2088,2088.32,35.79,35.79,0,10.39
442405,2090,2089.11,35.01,35.01,0,10.39
442410,2088,2087.71,34.16,34.16,0,10.39
442415,2090,2090.87,33.24,33.24,0,10.39
442420,2092,2092.27,32.27,32.27,0,10.39
442425,2085,2084.15,31.25,31.25,0,10.39
442430,2089,2088.75,30.19,30.19,0,10.39
442435,2086,2086.84,29.08,29.08,0,10.39
442440,2088,2088.23,27.95,27.95,0,10.39
442445,2082,2081.17,26.79,26.79,0,10.39
442450,2085,2084.79,25.61,25.61,0,10.39
442455,2077,2077.82,24.43,24.43,0,10.39
442460,2074,2074.19,23.26,23.26,0,10.39
442465,2082,2081.19,22.09,22.09,0,10.39
442470,2072,2071.84,20.94,20.94,0,10.39
442475,2069,2069.79,19.82,19.82,0,10.39
442480,2070,2070.14,18.74,18.74,0,10.39
442485,2068,2067.23,17.7,17.7,0,10.39
442490,2062,2061.88,16.7,16.7,0,10.39
442495,2065,2065.74,15.75,15.75,0,10.39
442500,2064,2064.1,14.86,14.86,0,10.39
442505,2060,2059.28,14.03,14.03,0,10.39
442510,2060,2059.91,13.25,13.25,0,10.39
442515,2060,2060.7,12.53,12.53,0,10.39
442520,2064,2064.09,11.85,11.85,0,10.39
442525,2064,2063.31,11.23,11.23,0,10.39
442530,2063,2062.91,10.65,10.65,0,10.39
442535,2060,2060.66,10.1,10.1,0,10.39
442540,2059,2059.08,9.59,9.59,0,10.39
442545,2067,2066.36,9.1,9.1,0,10.39
442550,2063,2062.92,8.63,8.63,0,10.39
442555,2063,2063.6,8.16,8.16,0,10.39
442560,2066,2066.07,7.7,7.7,0,10.39
442565,2066,2065.43,7.23,7.23,0,10.39
442570,2072,2071.94,6.75,6.75,0,10.39
442575,2065,2065.53,6.25,6.25,0,10.39
442580,2064,2064.04,5.72,5.72,0,10.39
442585,2063,2062.5,5.17,5.17,0,10.39
442590,2059,2058.99,4.58,4.58,0,10.39
442595,2067,2067.47,3.96,3.96,0,10.39
442600,2062,2062.0,3.31,3.31,0,10.39
442605,2057,2056.55,2.62,2.62,0,10.39
442610,2057,2057.01,1.9,1.9,0,10.39
442615,2060,2060.44,1.14,1.14,0,10.39
442620,2059,2058.98,0.35,0.35,0,10.39
442625,2059,2058.56,-0.47,-0.47,0,10.39
442630,2054,2054.02,-1.32,-1.32,0,10.39
442635,2056,2056.43,-2.19,-2.19,0,10.39
442640,2055,2054.98,-3.08,-3.08,0,10.39
442645,2047,2046.57,-3.99,-3.99,0,10.39
442650,2050,2050.01,-4.9,-4.9,0,10.39
442655,2046,2046.44,-5.82,-5.82,0,10.39
442660,2047,2047.0,-6.74,-6.74,0,10.39
442665,2045,2044.55,-7.65,-7.65,0,10.39
442670,2048,2048.0,-8.54,-8.54,0,10.39
442675,2043,2043.46,-9.42,-9.42,0,10.39
442680,2039,2039.0,-10.28,-10.28,0,10.39
442685,2043,2042.53,-11.11,-11.11,0,10.39
442690,2042,2042.01,-11.92,-11.92,0,10.39
442695,2034,2034.47,-12.68,-12.68,0,10.39
442700,2037,2036.98,-13.41,-13.41,0,10.39
442705,2041,2040.53,-14.1,-14.1,0,10.39
442710,2037,2037.04,-14.75,-14.75,0,10.39
442715,2034,2034.45,-15.35,-15.35,0,10.39
442720,2039,2038.94,-15.91,-15.91,0,10.39
442725,2036,2035.57,-16.43,-16.43,0,10.39
442730,2038,2038.07,-16.91,-16.91,0,10.39
442735,2036,2036.41,-17.34,-17.34,0,10.39
442740,2038,2037.91,-17.73,-17.73,0,10.39
442745,2035,2034.6,-18.08,-18.08,0,10.39
442750,2030,2030.1,-18.39,-18.39,0,10.39
442755,2038,2038.38,-18.67,-18.67,0,10.39
442760,2040,2039.9,-18.91,-18.91,0,10.39
442765,2041,2040.63,-19.11,-19.11,0,10.39
442770,2037,2037.08,-19.29,-19.29,0,10.39
442775,2031,2031.35,-19.43,-19.43,0,10.39
442780,2035,2034.93,-19.55,-19.55,0,10.39
442785,2040,2039.68,-19.63,-19.63,0,10.39
442790,2034,2034.06,-19.7,-19.7,0,10.39
442795,2034,2034.28,-19.73,-19.71,0,10.39
442800,2031,2030.95,-19.75,-19.71,0,10.39
442805,2032,2031.77,-19.74,-19.71,0,10.39
442810,2034,2034.05,-19.71,-19.71,0,10.39
442815,2028,2028.19,-19.66,-19.66,0,10.39
442820,2032,2031.95,-19.59,-19.59,0,10.39
442825,2033,2032.86,-19.51,-19.51,0,10.39
442830,2036,2036.05,-19.42,-19.42,0,10.39
442835,2037,2037.09,-19.33,-19.33,0,10.39
442840,2032,2031.94,-19.23,-19.23,0,10.39
442845,2029,2028.95,-19.14,-19.14,0,10.39
442850,2036,2036.07,-19.05,-19.05,0,10.39
442855,2034,2034.01,-18.97,-18.97,0,10.39
442860,2041,2040.91,-18.91,-18.91,0,10.39
442865,2036,2036.02,-18.86,-18.86,0,10.39
442870,2036,2036.09,-18.83,-18.86,0,10.39
442875,2045,2044.96,-18.83,-18.86,0,10.39
442880,2037,2036.9,-18.86,-18.86,0,10.39
442885,2037,2037.06,-18.92,-18.92,0,10.39
442890,2038,2038.1,-19.0,-19.0,0,10.39
442895,2036,2035.93,-19.11,-19.11,0,10.39
442900,2037,2036.9,-19.25,-19.25,0,10.39
442905,2038,2038.08,-19.41,-19.41,0,10.39
442910,2036,2036.11,-19.6,-19.6,0,10.39
442915,2037,2036.91,-19.81,-19.81,0,10.39
442920,2032,2031.88,-20.04,-20.04,0,10.39
442925,2037,2037.11,-20.28,-20.28,0,10.39
442930,2031,2031.13,-20.54,-20.54,0,10.39
442935,2035,2034.87,-20.8,-20.8,0,10.39
442940,2031,2030.86,-21.06,-21.06,0,10.39
442945,2029,2029.14,-21.33,-21.33,0,10.39
442950,2032,2032.15,-21.58,-21.58,0,10.39
442955,2031,2030.85,-21.83,-21.83,0,10.39
442960,2033,2032.84,-22.07,-22.07,0,10.39
442965,2034,2034.16,-22.29,-22.29,0,10.39
442970,2031,2031.17,-22.48,-22.48,0,10.39
442975,2032,2031.83,-22.66,-22.66,0,10.39
442980,2030,2029.82,-22.8,-22.8,0,10.39
442985,2031,2031.19,-22.91,-22.91,0,10.39
442990,2034,2034.19,-22.98,-22.93,0,10.39
442995,2035,2034.8,-23.01,-22.93,0,10.39
443000,2035,2034.79,-23.0,-22.93,0,10.39
443005,2037,2037.21,-22.93,-22.93,0,10.39
443010,2035,2035.23,-22.81,-22.81,0,10.39
443015,2033,2032.77,-22.63,-22.63,0,10.39
443020,2038,2037.76,-22.38,-22.38,0,10.39
443025,2032,2032.25,-22.05,-22.05,0,10.39
443030,2036,2036.25,-21.65,-21.65,0,10.39
443035,2035,2034.73,-21.15,-21.15,0,10.39
443040,2039,2038.74,-20.56,-20.56,0,10.39
443045,2033,2033.28,-19.87,-19.87,0,10.39
443050,2037,2037.27,-19.08,-19.08,0,10.39
443055,2039,2038.71,-18.16,-18.16,0,10.39
443060,2035,2034.73,-17.13,-17.13,0,10.39
443065,2031,2031.29,-15.97,-15.97,0,10.39
443070,2023,2023.27,-14.69,-14.69,0,10.39
443075,2034,2033.71,-13.27,-13.27,0,10.39
443080,2030,2029.74,-11.71,-11.71,0,10.39
443085,2037,2037.28,-10.03,-10.03,0,10.39
443090,2041,2041.25,-8.22,-8.22,0,10.39
443095,2039,2038.72,-6.29,-6.29,0,10.39
443100,2044,2043.75,-4.24,-4.24,0,10.39
443105,2042,2042.28,-2.1,-2.1,0,10.39
443110,2043,2043.25,0.14,0.14,0,10.39
443115,2050,2049.73,2.46,2.46,0,10.39
443120,2064,2063.77,4.84,4.84,0,10.39
443125,2056,2056.27,7.26,7.26,0,10.39
443130,2061,2061.2,9.72,9.72,0,10.39
443135,2066,2065.74,12.19,12.19,0,10.39
443140,2068,2067.84,14.66,14.66,0,10.39
443145,2071,2071.25,17.1,17.1,0,10.39
443150,2086,2086.12,19.51,19.51,0,10.39
443155,2083,2082.77,21.85,21.85,0,10.39
443160,2083,2082.89,24.12,24.12,0,10.39
443165,2090,2090.22,26.31,26.31,0,10.39
443170,2091,2091.1,28.39,28.39,0,10.39
443175,2088,2087.79,30.36,30.36,0,10.39
443180,2094,2093.91,32.21,32.21,0,10.39
443185,2092,2092.2,33.93,33.93,0,10.39
443190,2094,2094.08,35.52,35.52,0,10.39
443195,2098,2097.81,36.96,36.96,0,10.39
443200,2095,2094.93,38.26,38.26,0,10.39
443205,2100,2100.19,39.41,39.41,0,10.39
443210,2094,2094.06,40.42,40.42,0,10.39
443215,2099,2098.82,41.27,41.27,0,10.39
443220,2097,2096.95,41.98,41.98,0,10.39
443225,2094,2094.17,42.55,42.55,0,10.39
443230,2095,2095.04,42.98,42.98,0,10.39
443235,2091,2090.84,43.27,43.27,0,10.39
443240,2098,2097.98,43.42,43.27,0,10.39
443245,2096,2096.16,43.45,43.27,0,10.39
443250,2096,2096.0,43.36,43.27,0,10.39
443255,2094,2093.84,43.15,43.15,0,10.39
443260,2093,2093.03,42.82,42.82,0,10.39
443265,2092,2092.16,42.38,42.38,0,10.39
443270,2096,2095.96,41.84,41.84,0,10.39
443275,2095,2094.84,41.2,41.2,0,10.39
443280,2096,2096.06,40.46,40.46,0,10.39
443285,2093,2093.16,39.63,39.63,0,10.39
443290,2095,2094.93,38.71,38.71,0,10.39
443295,2095,2094.85,37.72,37.72,0,10.39
443300,2087,2087.09,36.66,36.66,0,10.39
443305,2088,2088.14,35.53,35.53,0,10.39
443310,2089,2088.91,34.35,34.35,0,10.39
443315,2089,2088.88,33.11,33.11,0,10.39
443320,2090,2090.1,31.84,31.84,0,10.39
443325,2086,2086.1,30.52,30.52,0,10.39
443330,2086,2085.9,29.18,29.18,0,10.39
443335,2082,2081.91,27.83,27.83,0,10.39
443340,2078,2078.11,26.46,26.46,0,10.39
443345,2079,2079.07,25.09,25.09,0,10.39
443350,2075,2074.89,23.73,23.73,0,10.39
443355,2073,2072.95,22.39,22.39,0,10.39
443360,2071,2071.12,21.06,21.06,0,10.39
443365,2069,2069.04,19.77,19.77,0,10.39
443370,2069,2068.88,18.52,18.52,0,10.39
443375,2064,2063.97,17.31,17.31,0,10.39
443380,2059,2059.11,16.15,16.15,0,10.39
443385,2063,2063.02,15.03,15.03,0,10.39
443390,2065,2064.9,13.96,13.96,0,10.39
443395,2058,2057.99,12.95,12.95,0,10.39
443400,2063,2063.08,11.98,11.98,0,10.39
443405,2063,2063.01,11.06,11.06,0,10.39
443410,2062,2061.94,10.18,10.18,0,10.39
443415,2059,2058.98,9.34,9.34,0,10.39
443420,2058,2058.04,8.54,8.54,0,10.39
443425,2062,2062.03,7.77,7.77,0,10.39
443430,2060,2059.99,7.02,7.02,0,10.39
443435,2060,2059.96,6.29,6.29,0,10.39
443440,2061,2060.98,5.58,5.58,0,10.39
443445,2063,2063.06,4.87,4.87,0,10.39
443450,2057,2057.04,4.16,4.16,0,10.39
443455,2070,2069.93,3.45,3.45,0,10.39
443460,2062,2061.94,2.73,2.73,0,10.39
443465,2057,2057.08,1.99,1.99,0,10.39
443470,2056,2056.07,1.25,1.25,0,10.39
443475,2060,2059.93,0.49,0.49,0,10.39
443480,2056,2055.93,-0.28,-0.28,0,10.39
443485,2059,2059.06,-1.07,-1.07,0,10.39
443490,2054,2054.08,-1.87,-1.87,0,10.39
443495,2049,2048.95,-2.69,-2.69,0,10.39
443500,2050,2049.92,-3.51,-3.51,0,10.39
443505,2049,2049.05,-4.34,-4.34,0,10.39
443510,2048,2048.09,-5.18,-5.18,0,10.39
443515,2046,2045.94,-6.01,-6.01,0,10.39
443520,2049,2048.9,-6.85,-6.85,0,10.39
443525,2042,2042.06,-7.68,-7.68,0,10.39
443530,2045,2045.1,-8.5,-8.5,0,10.39
443535,2040,2039.94,-9.31,-9.31,0,10.39
443540,2041,2040.9,-10.1,-10.1,0,10.39
443545,2046,2046.07,-10.88,-10.88,0,10.39
443550,2042,2042.11,-11.63,-11.63,0,10.39
443555,2037,2036.91,-12.37,-12.37,0,10.39
443560,2041,2040.88,-13.07,-13.07,0,10.39
443565,2037,2037.11,-13.75,-13.75,0,10.39
443570,2038,2038.13,-14.4,-14.4,0,10.39
443575,2037,2036.86,-15.02,-15.02,0,10.39
443580,2036,2035.87,-15.6,-15.6,0,10.39
443585,2030,2030.16,-16.14,-16.14,0,10.39
443590,2034,2034.14,-16.64,-16.64,0,10.39
443595,2036,2035.83,-17.11,-17.11,0,10.39
443600,2037,2036.85,-17.54,-17.54,0,10.39
443595,2036,2036.18,-17.93,-17.93,0,10.39
443605,2033,2033.15,-18.28,-18.28,0,10.39
443610,2030,2029.81,-18.59,-18.59,0,10.39
443615,2032,2031.85,-18.87,-18.87,0,10.39
443620,2030,2030.21,-19.11,-19.11,0,10.39
443625,2030,2030.14,-19.31,-19.31,0,10.39
443630,2031,2030.77,-19.49,-19.49,0,10.39
443635,2040,2039.87,-19.63,-19.63,0,10.39
443640,2035,2035.25,-19.74,-19.74,0,10.39
443645,2031,2031.11,-19.83,-19.83,0,10.39
443650,2035,2034.73,-19.9,-19.9,0,10.39
443655,2032,2031.92,-19.95,-19.95,0,10.39
443660,2035,2035.3,-19.98,-19.98,0,10.39
443665,2034,2034.05,-20.0,-19.98,0,10.39
443670,2031,2030.67,-20.0,-19.98,0,10.39
443675,2030,2029.97,-19.99,-19.98,0,10.39
443680,2029,2029.36,-19.96,-19.96,0,10.39
443685,2035,2035.01,-19.93,-19.93,0,10.39
443690,2039,2038.62,-19.9,-19.9,0,10.39
443695,2035,2035.0,-19.86,-19.86,0,10.39
443700,2034,2034.39,-19.82,-19.82,0,10.39
443705,2031,2030.98,-19.77,-19.77,0,10.39
443710,2032,2031.59,-19.73,-19.73,0,10.39
443715,2032,2032.04,-19.69,-19.69,0,10.39
443720,2030,2030.42,-19.64,-19.64,0,10.39
443725,2034,2033.94,-19.6,-19.6,0,10.39
443730,2031,2030.57,-19.57,-19.57,0,10.39
443735,2034,2034.07,-19.54,-19.54,0,10.39
443740,2032,2032.45,-19.51,-19.51,0,10.39
443745,2032,2031.91,-19.49,-19.49,0,10.39
443750,2041,2040.54,-19.48,-19.49,0,10.39
443755,2033,2033.12,-19.47,-19.49,0,10.39
443760,2034,2034.46,-19.48,-19.49,0,10.39
443765,2034,2033.86,-19.49,-19.49,0,10.39
443770,2029,2028.54,-19.51,-19.51,0,10.39
443775,2027,2027.16,-19.53,-19.53,0,10.39
443780,2034,2034.47,-19.57,-19.57,0,10.39
443785,2031,2030.83,-19.6,-19.6,0,10.39
443790,2032,2031.52,-19.65,-19.65,0,10.39
443795,2030,2030.17,-19.7,-19.7,0,10.39
443800,2030,2030.5,-19.76,-19.76,0,10.39
443805,2035,2034.82,-19.82,-19.82,0,10.39
443810,2033,2032.49,-19.9,-19.9,0,10.39
443815,2037,2037.18,-19.98,-19.98,0,10.39
443820,2028,2028.52,-20.07,-20.07,0,10.39
443825,2032,2031.81,-20.17,-20.17,0,10.39
443830,2033,2032.48,-20.27,-20.27,0,10.39
443835,2033,2033.2,-20.39,-20.39,0,10.39
443840,2025,2025.52,-20.51,-20.51,0,10.39
443845,2032,2031.79,-20.63,-20.63,0,10.39
443850,2033,2032.49,-20.77,-20.77,0,10.39
443855,2033,2033.23,-20.9,-20.9,0,10.39
443860,2036,2036.49,-21.05,-21.05,0,10.39
443865,2037,2036.76,-21.19,-21.19,0,10.39
443870,2030,2029.51,-21.34,-21.34,0,10.39
443875,2031,2031.25,-21.49,-21.49,0,10.39
443880,2029,2029.48,-21.64,-21.64,0,10.39
443885,2033,2032.74,-21.77,-21.77,0,10.39
443890,2034,2033.52,-21.9,-21.9,0,10.39
443895,2033,2033.26,-22.02,-22.02,0,10.39
443900,2028,2028.47,-22.12,-22.12,0,10.39
443905,2028,2027.73,-22.2,-22.2,0,10.39
443910,2033,2032.55,-22.26,-22.24,0,10.39
443915,2030,2030.28,-22.29,-22.24,0,10.39
443920,2028,2028.43,-22.28,-22.24,0,10.39
443925,2031,2030.71,-22.24,-22.24,0,10.39
443930,2028,2027.6,-22.16,-22.16,0,10.39
443935,2031,2031.31,-22.03,-22.03,0,10.39
443940,2028,2028.38,-21.86,-21.86,0,10.39
443945,2031,2030.68,-21.63,-21.63,0,10.39
443950,2043,2042.66,-21.35,-21.35,0,10.39
443955,2032,2032.34,-21.01,-21.01,0,10.39
443960,2036,2036.29,-20.61,-20.61,0,10.39
443965,2039,2038.65,-20.14,-20.14,0,10.39
443970,2030,2029.75,-19.6,-19.6,0,10.39
443975,2030,2030.35,-18.98,-18.98,0,10.39
443980,2037,2037.21,-18.28,-18.28,0,10.39
443985,2038,2037.65,-17.49,-17.49,0,10.39
443990,2037,2036.83,-16.62,-16.62,0,10.39
443995,2041,2041.34,-15.64,-15.64,0,10.39
444000,2035,2035.14,-14.57,-14.57,0,10.39
444005,2035,2034.67,-13.4,-13.4,0,10.39
444010,2032,2031.89,-12.12,-12.12,0,10.39
444015,2033,2033.34,-10.74,-10.74,0,10.39
444020,2037,2037.08,-9.25,-9.25,0,10.39
444025,2036,2035.67,-7.65,-7.65,0,10.39
444030,2035,2034.94,-5.94,-5.94,0,10.39
444035,2039,2039.33,-4.14,-4.14,0,10.39
444040,2039,2039.04,-2.25,-2.25,0,10.39
444045,2056,2055.68,-0.27,-0.27,0,10.39
444050,2050,2049.98,1.77,1.77,0,10.39
444055,2052,2052.3,3.88,3.88,0,10.39
444060,2065,2065.0,6.04,6.04,0,10.39
444065,2053,2052.72,8.23,8.23,0,10.39
444070,2060,2060.01,10.45,10.45,0,10.39
444075,2064,2064.26,12.68,12.68,0,10.39
444080,2069,2069.0,14.91,14.91,0,10.39
444085,2075,2074.76,17.12,17.12,0,10.39
444090,2076,2076.0,19.3,19.3,0,10.39
444095,2078,2078.22,21.45,21.45,0,10.39
444100,2083,2083.01,23.53,23.53,0,10.39
444105,2087,2086.81,25.55,25.55,0,10.39
444110,2088,2087.99,27.5,27.5,0,10.39
444115,2087,2087.16,29.37,29.37,0,10.39
444120,2090,2090.02,31.15,31.15,0,10.39
444125,2086,2085.87,32.84,32.84,0,10.39
444130,2090,2089.98,34.43,34.43,0,10.39
444135,2090,2090.11,35.92,35.92,0,10.39
444140,2094,2094.03,37.31,37.31,0,10.39
444145,2093,2092.92,38.6,38.6,0,10.39
444150,2086,2085.95,39.79,39.79,0,10.39
444155,2090,2090.05,40.87,40.87,0,10.39
444160,2091,2091.07,41.85,41.85,0,10.39
444165,2091,2090.98,42.73,42.73,0,10.39
444170,2093,2092.9,43.51,43.51,0,10.39
444175,2095,2094.99,44.19,44.19,0,10.39
444180,2089,2089.13,44.77,44.77,0,10.39
444185,2091,2091.03,45.24,45.24,0,10.39
444190,2100,2099.86,45.61,45.61,0,10.39
444195,2097,2096.95,45.88,45.88,0,10.39
444200,2092,2092.14,46.04,45.9,0,10.39
444205,2098,2098.07,46.1,45.9,0,10.39
444210,2098,2097.86,46.05,45.9,0,10.39
444215,2100,2099.92,45.9,45.9,0,10.39
444220,2098,2098.12,45.64,45.64,0,10.39
444225,2098,2098.09,45.27,45.27,0,10.39
444230,2100,2099.89,44.8,44.8,0,10.39
444235,2101,2100.9,44.22,44.22,0,10.39
444240,2099,2099.1,43.55,43.55,0,10.39
444245,2097,2097.1,42.78,42.78,0,10.39
444250,2098,2097.92,41.91,41.91,0,10.39
444255,2098,2097.9,40.96,40.96,0,10.39
444260,2095,2095.07,39.92,39.92,0,10.39
444265,2093,2093.1,38.81,38.81,0,10.39
444270,2088,2087.94,37.63,37.63,0,10.39
444275,2090,2089.91,36.39,36.39,0,10.39
444280,2085,2085.05,35.1,35.1,0,10.39
444285,2080,2080.08,33.76,33.76,0,10.39
444290,2086,2085.96,32.4,32.4,0,10.39
444295,2085,2084.93,31.0,31.0,0,10.39
444300,2084,2084.02,29.59,29.59,0,10.39
444305,2078,2078.04,28.17,28.17,0,10.39
444310,2070,2069.98,26.74,26.74,0,10.39
444315,2076,2075.99,25.32,25.32,0,10.39
444320,2070,2070.02,23.91,23.91,0,10.39
444325,2071,2070.97,22.52,22.52,0,10.39
444330,2070,2069.97,21.16,21.16,0,10.39
444335,2065,2065.06,19.83,19.83,0,10.39
444340,2065,2065.03,18.52,18.52,0,10.39
444345,2067,2066.92,17.26,17.26,0,10.39
444350,2062,2061.97,16.03,16.03,0,10.39
444355,2063,2063.11,14.83,14.83,0,10.39
444360,2069,2069.03,13.68,13.68,0,10.39
444365,2061,2060.87,12.56,12.56,0,10.39
444370,2063,2062.95,11.48,11.48,0,10.39
444375,2060,2060.15,10.44,10.44,0,10.39
444380,2058,2058.07,9.43,9.43,0,10.39
444385,2058,2057.82,8.45,8.45,0,10.39
444390,2060,2059.92,7.5,7.5,0,10.39
444395,2060,2060.2,6.58,6.58,0,10.39
444400,2056,2056.09,5.69,5.69,0,10.39
444405,2059,2058.77,4.81,4.81,0,10.39
444410,2053,2052.91,3.96,3.96,0,10.39
444415,2055,2055.26,3.12,3.12,0,10.39
444420,2054,2054.11,2.29,2.29,0,10.39
444425,2057,2056.71,1.47,1.47,0,10.39
444430,2056,2055.88,0.67,0.67,0,10.39
444435,2047,2047.3,-0.14,-0.14,0,10.39
444440,2048,2048.12,-0.93,-0.93,0,10.39
444445,2053,2052.69,-1.73,-1.73,0,10.39
444450,2056,2055.89,-2.52,-2.52,0,10.39
444455,2053,2053.32,-3.31,-3.31,0,10.39
444460,2047,2047.09,-4.11,-4.11,0,10.39
444465,2046,2045.67,-4.9,-4.9,0,10.39
444470,2052,2051.93,-5.69,-5.69,0,10.39
444475,2042,2042.34,-6.48,-6.48,0,10.39
444480,2044,2044.03,-7.27,-7.27,0,10.39
444485,2045,2044.65,-8.05,-8.05,0,10.39
444490,2040,2040.01,-8.82,-8.82,0,10.39
444495,2044,2044.35,-9.58,-9.58,0,10.39
444500,2041,2040.95,-10.32,-10.32,0,10.39
444505,2044,2043.64,-11.05,-11.05,0,10.39
444510,2035,2035.08,-11.77,-11.77,0,10.39
444515,2036,2036.36,-12.46,-12.46,0,10.39
444520,2039,2038.9,-13.12,-13.12,0,10.39
444525,2032,2031.63,-13.76,-13.76,0,10.39
444530,2035,2035.12,-14.36,-14.36,0,10.39
444535,2035,2035.37,-14.94,-14.94,0,10.39
444540,2032,2031.86,-15.47,-15.47,0,10.39
444545,2038,2037.62,-15.98,-15.98,0,10.39
444550,2031,2031.16,-16.45,-16.45,0,10.39
444555,2035,2035.38,-16.87,-16.87,0,10.39
444560,2033,2032.82,-17.26,-17.26,0,10.39
444565,2028,2027.61,-17.61,-17.61,0,10.39
444570,2027,2027.19,-17.92,-17.92,0,10.39
444575,2028,2028.41,-18.19,-18.19,0,10.39
444580,2032,2031.8,-18.43,-18.43,0,10.39
444585,2030,2029.58,-18.62,-18.62,0,10.39
444590,2033,2033.2,-18.78,-18.78,0,10.39
444595,2029,2029.44,-18.9,-18.9,0,10.39
444600,2034,2033.79,-18.99,-18.99,0,10.39
444605,2032,2031.55,-19.06,-19.06,0,10.39
444610,2031,2031.21,-19.1,-19.07,0,10.39
444615,2024,2024.45,-19.11,-19.07,0,10.39
444620,2033,2032.79,-19.1,-19.07,0,10.39
444625,2036,2035.55,-19.07,-19.07,0,10.39
444630,2030,2030.21,-19.03,-19.03,0,10.39
444635,2031,2031.43,-18.98,-18.98,0,10.39
444640,2035,2034.8,-18.91,-18.91,0,10.39
444645,2034,2033.59,-18.83,-18.83,0,10.39
444650,2029,2029.19,-18.75,-18.75,0,10.39
444655,2037,2037.39,-18.67,-18.67,0,10.39
444660,2029,2028.83,-18.58,-18.58,0,10.39
444665,2030,2029.63,-18.49,-18.49,0,10.39
444670,2029,2029.15,-18.39,-18.39,0,10.39
444675,2031,2031.37,-18.3,-18.3,0,10.39
444680,2035,2034.87,-18.21,-18.21,0,10.39
444685,2035,2034.64,-18.12,-18.12,0,10.39
444690,2028,2028.1,-18.04,-18.04,0,10.39
444695,2032,2032.35,-17.96,-17.96,0,10.39
444700,2032,2031.94,-17.89,-17.89,0,10.39
444705,2036,2035.67,-17.83,-17.83,0,10.39
444710,2035,2035.03,-17.77,-17.77,0,10.39
444715,2031,2031.31,-17.72,-17.72,0,10.39
444720,2031,2031.01,-17.68,-17.68,0,10.39
444725,2030,2029.71,-17.64,-17.64,0,10.39
444730,2034,2033.96,-17.61,-17.61,0,10.39
444735,2031,2031.27,-17.59,-17.59,0,10.39
444740,2032,2032.06,-17.58,-17.58,0,10.39
444745,2033,2032.75,-17.57,-17.57,0,10.39
444750,2032,2031.92,-17.56,-17.57,0,10.39
444755,2035,2035.23,-17.56,-17.57,0,10.39
444760,2031,2031.11,-17.57,-17.57,0,10.39
444765,2029,2028.78,-17.58,-17.58,0,10.39
444770,2031,2030.87,-17.59,-17.59,0,10.39
444775,2036,2036.22,-17.61,-17.61,0,10.39
444780,2032,2032.15,-17.63,-17.63,0,10.39
444785,2033,2032.78,-17.64,-17.64,0,10.39
444790,2031,2030.82,-17.66,-17.66,0,10.39
444795,2028,2028.22,-17.68,-17.68,0,10.39
444800,2033,2033.21,-17.7,-17.7,0,10.39
444805,2030,2029.78,-17.71,-17.71,0,10.39
444810,2034,2033.76,-17.72,-17.72,0,10.39
444815,2033,2033.22,-17.73,-17.72,0,10.39
444820,2035,2035.27,-17.73,-17.72,0,10.39
444825,2028,2027.77,-17.73,-17.72,0,10.39
444830,2033,2032.7,-17.72,-17.72,0,10.39
444835,2029,2029.24,-17.71,-17.71,0,10.39
444840,2028,2028.33,-17.69,-17.69,0,10.39
444845,2032,2031.75,-17.66,-17.66,0,10.39
444850,2034,2033.64,-17.62,-17.62,0,10.39
444855,2028,2028.26,-17.58,-17.58,0,10.39
444860,2026,2026.37,-17.52,-17.52,0,10.39
444865,2035,2034.74,-17.46,-17.46,0,10.39
444870,2035,2034.62,-17.4,-17.4,0,10.39
444875,2029,2029.25,-17.33,-17.33,0,10.39
444880,2029,2029.37,-17.26,-17.26,0,10.39
444885,2032,2031.76,-17.18,-17.18,0,10.39
444890,2031,2030.63,-17.1,-17.1,0,10.39
444895,2033,2033.22,-17.02,-17.02,0,10.39
444900,2032,2032.36,-16.95,-16.95,0,10.39
444905,2033,2032.79,-16.87,-16.87,0,10.39
444910,2032,2031.65,-16.8,-16.8,0,10.39
444915,2035,2035.2,-16.74,-16.74,0,10.39
444920,2037,2037.35,-16.68,-16.68,0,10.39
444925,2034,2033.81,-16.63,-16.63,0,10.39
444930,2037,2036.65,-16.58,-16.58,0,10.39
444935,2039,2039.18,-16.54,-16.54,0,10.39
444940,2037,2037.36,-16.51,-16.51,0,10.39
444945,2035,2034.81,-16.49,-16.49,0,10.39
444950,2038,2037.64,-16.46,-16.46,0,10.39
444955,2032,2032.19,-16.43,-16.43,0,10.39
444960,2034,2034.36,-16.4,-16.4,0,10.39
444965,2034,2033.81,-16.35,-16.35,0,10.39
444970,2036,2035.64,-16.29,-16.29,0,10.39
444975,2035,2035.19,-16.22,-16.22,0,10.39
444980,2038,2038.36,-16.12,-16.12,0,10.39
444985,2036,2035.81,-15.99,-15.99,0,10.39
444970,2036,2035.64,-15.83,-15.83,0,10.39
444975,2035,2035.19,-15.63,-15.63,0,10.39
444980,2038,2038.37,-15.38,-15.38,0,10.39
444990,2037,2036.81,-15.08,-15.08,0,10.39
444995,2034,2033.62,-14.72,-14.72,0,10.39
445000,2037,2037.19,-14.3,-14.3,0,10.39
445005,2029,2029.39,-13.81,-13.81,0,10.39
445010,2036,2035.81,-13.24,-13.24,0,10.39
445015,2037,2036.6,-12.59,-12.59,0,10.39
445020,2035,2035.19,-11.86,-11.86,0,10.39
445025,2037,2037.4,-11.03,-11.03,0,10.39
445030,2037,2036.82,-10.12,-10.12,0,10.39
445035,2034,2033.6,-9.11,-9.11,0,10.39
445040,2036,2036.18,-8.01,-8.01,0,10.39
445045,2038,2038.41,-6.81,-6.81,0,10.39
445050,2035,2034.82,-5.52,-5.52,0,10.39
445055,2049,2048.59,-4.14,-4.14,0,10.39
445060,2038,2038.18,-2.68,-2.68,0,10.39
445065,2043,2043.41,-1.13,-1.13,0,10.39
445070,2045,2044.83,0.48,0.48,0,10.39
445075,2049,2048.6,2.17,2.17,0,10.39
445080,2047,2047.17,3.9,3.9,0,10.39
445085,2053,2053.38,5.69,5.69,0,10.39
445090,2057,2056.84,7.5,7.5,0,10.39
445095,2058,2057.63,9.34,9.34,0,10.39
445100,2063,2063.15,11.19,11.19,0,10.39
445105,2067,2067.36,13.04,13.04,0,10.39
445110,2070,2069.87,14.88,14.88,0,10.39
445115,2073,2072.64,16.69,16.69,0,10.39
445120,2076,2076.12,18.46,18.46,0,10.39
445125,2067,2067.35,20.19,20.19,0,10.39
445130,2074,2073.89,21.87,21.87,0,10.39
445135,2080,2079.68,23.48,23.48,0,10.39
445140,2083,2083.11,25.03,25.03,0,10.39
445145,2087,2087.29,26.5,26.5,0,10.39
445150,2082,2081.88,27.88,27.88,0,10.39
445155,2076,2075.72,29.19,29.19,0,10.39
445160,2082,2082.13,30.4,30.4,0,10.39
445165,2085,2085.28,31.53,31.53,0,10.39
445170,2081,2080.86,32.57,32.57,0,10.39
445175,2085,2084.71,33.52,33.52,0,10.39
445180,2078,2078.15,34.38,34.38,0,10.39
445185,2088,2088.29,35.15,35.15,0,10.39
445190,2087,2086.85,35.82,35.82,0,10.39
445195,2087,2086.69,36.41,36.41,0,10.39
445200,2087,2087.15,36.91,36.91,0,10.39
445205,2080,2080.32,37.32,37.32,0,10.39
445210,2085,2084.86,37.64,37.64,0,10.39
445215,2093,2092.69,37.88,37.88,0,10.39
445220,2085,2085.14,38.03,38.0,0,10.39
445225,2085,2085.3,38.1,38.0,0,10.39
445230,2081,2080.86,38.09,38.0,0,10.39
445235,2086,2085.72,38.0,38.0,0,10.39
445240,2086,2086.15,37.83,37.83,0,10.39
445245,2092,2092.26,37.59,37.59,0,10.39
445250,2091,2090.84,37.26,37.26,0,10.39
445255,2087,2086.75,36.87,36.87,0,10.39
445260,2088,2088.16,36.39,36.39,0,10.39
445265,2084,2084.24,35.85,35.85,0,10.39
445270,2087,2086.83,35.24,35.24,0,10.39
445275,2082,2081.77,34.57,34.57,0,10.39
445280,2084,2084.17,33.83,33.83,0,10.39
445285,2088,2088.23,33.04,33.04,0,10.39
445290,2086,2085.83,32.2,32.2,0,10.39
445295,2085,2084.76,31.3,31.3,0,10.39
445300,2086,2086.17,30.36,30.36,0,10.39
445305,2082,2082.24,29.38,29.38,0,10.39
445310,2078,2077.83,28.37,28.37,0,10.39
445315,2075,2074.75,27.33,27.33,0,10.39
445320,2075,2075.18,26.28,26.28,0,10.39
445325,2070,2070.27,25.21,25.21,0,10.39
445330,2074,2073.81,24.13,24.13,0,10.39
445335,2071,2070.73,23.06,23.06,0,10.39
445340,2068,2068.19,21.99,21.99,0,10.39
445345,2065,2065.28,20.93,20.93,0,10.39
445350,2069,2068.81,19.89,19.89,0,10.39
445355,2068,2067.72,18.86,18.86,0,10.39
445360,2064,2064.19,17.85,17.85,0,10.39
445365,2061,2061.27,16.87,16.87,0,10.39
445370,2064,2063.82,15.91,15.91,0,10.39
445375,2062,2061.74,14.97,14.97,0,10.39
445380,2064,2064.17,14.06,14.06,0,10.39
445385,2060,2060.24,13.18,13.18,0,10.39
445390,2059,2058.83,12.32,12.32,0,10.39
445395,2060,2059.77,11.48,11.48,0,10.39
445400,2059,2059.17,10.66,10.66,0,10.39
445405,2059,2059.21,9.85,9.85,0,10.39
445410,2060,2059.83,9.07,9.07,0,10.39
445415,2063,2062.8,8.3,8.3,0,10.39
445420,2060,2060.18,7.53,7.53,0,10.39
445425,2056,2056.17,6.78,6.78,0,10.39
445430,2056,2055.82,6.03,6.03,0,10.39
445435,2055,2054.85,5.29,5.29,0,10.39
445440,2057,2057.19,4.55,4.55,0,10.39
445445,2057,2057.12,3.81,3.81,0,10.39
445450,2052,2051.8,3.07,3.07,0,10.39
445455,2052,2051.9,2.33,2.33,0,10.39
445460,2049,2049.22,1.59,1.59,0,10.39
445465,2055,2055.09,0.85,0.85,0,10.39
445470,2052,2051.77,0.11,0.11,0,10.39
445475,2052,2051.92,-0.64,-0.64,0,10.39
445480,2053,2053.24,-1.39,-1.39,0,10.39
445485,2049,2049.07,-2.14,-2.14,0,10.39
445490,2052,2051.75,-2.88,-2.88,0,10.39
445495,2045,2044.94,-3.63,-3.63,0,10.39
445500,2046,2046.26,-4.37,-4.37,0,10.39
445505,2045,2045.05,-5.1,-5.1,0,10.39
445510,2044,2043.73,-5.81,-5.81,0,10.39
445515,2043,2042.95,-6.52,-6.52,0,10.39
445520,2038,2038.27,-7.2,-7.2,0,10.39
445525,2039,2039.04,-7.86,-7.86,0,10.39
445530,2042,2041.73,-8.5,-8.5,0,10.39
445535,2039,2038.97,-9.11,-9.11,0,10.39
445540,2033,2033.27,-9.69,-9.69,0,10.39
445545,2035,2035.02,-10.24,-10.24,0,10.39
445550,2032,2031.75,-10.75,-10.75,0,10.39
445555,2040,2040.0,-11.24,-11.24,0,10.39
445560,2038,2038.25,-11.69,-11.69,0,10.39
445565,2037,2036.98,-12.11,-12.11,0,10.39
445570,2040,2039.76,-12.5,-12.5,0,10.39
445575,2033,2033.04,-12.85,-12.85,0,10.39
445580,2038,2038.23,-13.18,-13.18,0,10.39
445585,2030,2029.94,-13.47,-13.47,0,10.39
445590,2037,2036.77,-13.74,-13.74,0,10.39
445595,2033,2033.09,-13.98,-13.98,0,10.39
445600,2042,2042.23,-14.19,-14.19,0,10.39
445605,2035,2034.89,-14.37,-14.37,0,10.39
445610,2035,2034.77,-14.53,-14.53,0,10.39
445615,2030,2030.14,-14.66,-14.66,0,10.39
445620,2030,2030.24,-14.77,-14.77,0,10.39
445625,2035,2034.85,-14.86,-14.86,0,10.39
445630,2035,2034.75,-14.93,-14.93,0,10.39
445635,2034,2034.16,-14.97,-14.97,0,10.39
445640,2038,2038.25,-15.0,-14.98,0,10.39
445645,2035,2034.83,-15.01,-14.98,0,10.39
445650,2037,2036.75,-15.01,-14.98,0,10.39
445655,2034,2034.18,-14.98,-14.98,0,10.39
445660,2030,2030.26,-14.95,-14.95,0,10.39
445665,2037,2036.81,-14.9,-14.9,0,10.39
445670,2028,2027.74,-14.83,-14.83,0,10.39
445675,2036,2036.2,-14.75,-14.75,0,10.39
445680,2033,2033.26,-14.66,-14.66,0,10.39
445685,2031,2030.79,-14.55,-14.55,0,10.39
445690,2039,2038.73,-14.44,-14.44,0,10.39
445695,2029,2029.22,-14.31,-14.31,0,10.39
445700,2027,2027.26,-14.18,-14.18,0,10.39
445705,2037,2036.78,-14.03,-14.03,0,10.39
445710,2034,2033.76,-13.89,-13.89,0,10.39
445715,2035,2035.22,-13.73,-13.73,0,10.39
445720,2038,2038.22,-13.58,-13.58,0,10.39
445725,2033,2032.78,-13.43,-13.43,0,10.39
445730,2036,2035.79,-13.28,-13.28,0,10.39
445735,2036,2036.23,-13.13,-13.13,0,10.39
445740,2035,2035.19,-12.98,-12.98,0,10.39
445745,2036,2035.77,-12.85,-12.85,0,10.39
445750,2038,2037.82,-12.72,-12.72,0,10.39
445755,2036,2036.24,-12.59,-12.59,0,10.39
445760,2036,2036.16,-12.48,-12.48,0,10.39
445765,2036,2035.75,-12.38,-12.38,0,10.39
445770,2033,2032.86,-12.28,-12.28,0,10.39
445775,2038,2038.26,-12.2,-12.2,0,10.39
445780,2035,2035.12,-12.12,-12.12,0,10.39
445785,2041,2040.73,-12.06,-12.06,0,10.39
445790,2035,2034.89,-12.0,-12.0,0,10.39
445795,2033,2033.27,-11.95,-11.95,0,10.39
445800,2034,2034.1,-11.91,-11.91,0,10.39
445805,2032,2031.73,-11.88,-11.88,0,10.39
445810,2037,2036.92,-11.86,-11.86,0,10.39
445815,2037,2037.27,-11.85,-11.86,0,10.39
445820,2037,2037.07,-11.84,-11.86,0,10.39
445825,2036,2035.72,-11.85,-11.86,0,10.39
445830,2042,2041.96,-11.86,-11.86,0,10.39
445835,2032,2032.29,-11.88,-11.88,0,10.39
445840,2036,2036.02,-11.9,-11.9,0,10.39
445845,2038,2037.71,-11.93,-11.93,0,10.39
445850,2032,2032.01,-11.96,-11.96,0,10.39
445855,2036,2036.29,-12.0,-12.0,0,10.39
445860,2035,2034.96,-12.04,-12.04,0,10.39
445865,2039,2038.72,-12.08,-12.08,0,10.39
445870,2031,2031.06,-12.12,-12.12,0,10.39
445875,2032,2032.27,-12.17,-12.17,0,10.39
445880,2033,2032.93,-12.2,-12.2,0,10.39
445885,2033,2032.75,-12.24,-12.24,0,10.39
445890,2036,2036.09,-12.28,-12.28,0,10.39
445895,2031,2031.23,-12.31,-12.31,0,10.39
445900,2040,2039.89,-12.34,-12.34,0,10.39
445905,2038,2037.79,-12.37,-12.37,0,10.39
445910,2033,2033.12,-12.4,-12.4,0,10.39
445915,2036,2036.18,-12.43,-12.43,0,10.39
445920,2037,2036.88,-12.46,-12.46,0,10.39
445925,2039,2038.85,-12.48,-12.48,0,10.39
445930,2040,2040.12,-12.5,-12.5,0,10.39
445935,2035,2035.11,-12.51,-12.5,0,10.39
445940,2035,2034.87,-12.52,-12.5,0,10.39
445945,2035,2034.93,-12.52,-12.5,0,10.39
445950,2038,2038.14,-12.5,-12.5,0,10.39
445955,2042,2042.04,-12.47,-12.47,0,10.39
445960,2039,2038.85,-12.43,-12.43,0,10.39
445965,2031,2030.98,-12.36,-12.36,0,10.39
445970,2035,2035.17,-12.26,-12.26,0,10.39
445975,2038,2038.01,-12.13,-12.13,0,10.39
445980,2034,2033.82,-11.97,-11.97,0,10.39
445985,2037,2037.0,-11.78,-11.78,0,10.39
445990,2033,2033.19,-11.54,-11.54,0,10.39
445995,2041,2041.0,-11.25,-11.25,0,10.39
446000,2033,2032.8,-10.92,-10.92,0,10.39
446005,2036,2035.99,-10.53,-10.53,0,10.39
446010,2033,2033.21,-10.09,-10.09,0,10.39
446015,2035,2035.02,-9.59,-9.59,0,10.39
446020,2037,2036.78,-9.04,-9.04,0,10.39
446025,2037,2036.98,-8.42,-8.42,0,10.39
446030,2032,2032.22,-7.74,-7.74,0,10.39
446035,2041,2041.03,-7.0,-7.0,0,10.39
446040,2042,2041.78,-6.2,-6.2,0,10.39
446045,2045,2044.96,-5.34,-5.34,0,10.39
446050,2036,2036.2,-4.43,-4.43,0,10.39
446055,2046,2046.04,-3.47,-3.47,0,10.39
446060,2037,2036.82,-2.45,-2.45,0,10.39
446065,2037,2036.94,-1.39,-1.39,0,10.39
446070,2043,2043.16,-0.29,-0.29,0,10.39
446075,2044,2044.08,0.85,0.85,0,10.39
446080,2047,2046.85,2.02,2.02,0,10.39
446085,2045,2044.89,3.21,3.21,0,10.39
446090,2046,2046.13,4.42,4.42,0,10.39
446095,2048,2048.14,5.63,5.63,0,10.39
446100,2060,2059.9,6.83,6.83,0,10.39
446105,2064,2063.84,8.02,8.02,0,10.39
446110,2063,2063.06,9.18,9.18,0,10.39
446115,2057,2057.17,10.31,10.31,0,10.39
446120,2063,2062.97,11.4,11.4,0,10.39
446125,2060,2059.83,12.44,12.44,0,10.39
446130,2064,2064.0,13.43,13.43,0,10.39
446135,2063,2063.17,14.36,14.36,0,10.39
446140,2068,2068.04,15.22,15.22,0,10.39
446145,2070,2069.83,16.02,16.02,0,10.39
446150,2072,2071.93,16.74,16.74,0,10.39
446155,2070,2070.16,17.39,17.39,0,10.39
446160,2065,2065.1,17.97,17.97,0,10.39
446165,2073,2072.85,18.48,18.48,0,10.39
446170,2068,2067.88,18.92,18.92,0,10.39
446175,2072,2072.14,19.29,19.29,0,10.39
446180,2067,2067.14,19.6,19.6,0,10.39
446185,2068,2067.86,19.84,19.84,0,10.39
446190,2065,2064.84,20.03,20.03,0,10.39
446195,2063,2063.13,20.18,20.18,0,10.39
446200,2064,2064.18,20.27,20.27,0,10.39
446205,2069,2068.89,20.33,20.3,0,10.39
446210,2061,2060.8,20.35,20.3,0,10.39
446215,2060,2060.09,20.34,20.3,0,10.39
446220,2058,2058.22,20.3,20.3,0,10.39
446225,2063,2062.95,20.24,20.24,0,10.39
446230,2063,2062.76,20.16,20.16,0,10.39
446235,2069,2069.02,20.05,20.05,0,10.39
446240,2061,2061.25,19.91,19.91,0,10.39
446245,2064,2064.0,19.76,19.76,0,10.39
446250,2062,2061.73,19.58,19.58,0,10.39
446255,2064,2063.98,19.37,19.37,0,10.39
446260,2066,2066.28,19.14,19.14,0,10.39
446265,2069,2069.04,18.88,18.88,0,10.39
446270,2073,2072.7,18.58,18.58,0,10.39
446275,2069,2068.93,18.26,18.26,0,10.39
446280,2070,2070.3,17.9,17.9,0,10.39
446285,2066,2066.1,17.51,17.51,0,10.39
446290,2063,2062.69,17.09,17.09,0,10.39
446295,2070,2069.88,16.64,16.64,0,10.39
446300,2069,2069.34,16.16,16.16,0,10.39
446305,2063,2063.13,15.65,15.65,0,10.39
446310,2064,2063.63,15.12,15.12,0,10.39
446315,2065,2064.86,14.56,14.56,0,10.39
446320,2063,2063.4,13.99,13.99,0,10.39
446325,2058,2058.14,13.41,13.41,0,10.39
446330,2065,2064.57,12.82,12.82,0,10.39
446335,2059,2058.86,12.22,12.22,0,10.39
446340,2055,2055.46,11.62,11.62,0,10.39
446345,2055,2055.13,11.03,11.03,0,10.39
446350,2056,2055.52,10.44,10.44,0,10.39
446355,2055,2054.88,9.87,9.87,0,10.39
446360,2050,2050.49,9.31,9.31,0,10.39
446365,2054,2054.11,8.76,8.76,0,10.39
446370,2053,2052.5,8.23,8.23,0,10.39
446375,2051,2050.9,7.73,7.73,0,10.39
446380,2052,2052.51,7.24,7.24,0,10.39
446385,2048,2048.1,6.77,6.77,0,10.39
446390,2054,2053.48,6.32,6.32,0,10.39
446395,2052,2051.92,5.88,5.88,0,10.39
446400,2050,2050.53,5.46,5.46,0,10.39
446405,2056,2056.07,5.05,5.05,0,10.39
446410,2052,2051.47,4.64,4.64,0,10.39
446415,2050,2049.93,4.25,4.25,0,10.39
446420,2046,2046.53,3.86,3.86,0,10.39
446425,2051,2051.07,3.47,3.47,0,10.39
446430,2058,2057.48,3.08,3.08,0,10.39
446435,2051,2050.93,2.69,2.69,0,10.39
446440,2055,2055.5,2.29,2.29,0,10.39
446445,2051,2051.07,1.88,1.88,0,10.39
446450,2052,2051.52,1.46,1.46,0,10.39
446455,2050,2049.93,1.03,1.03,0,10.39
446460,2052,2052.46,0.59,0.59,0,10.39
446465,2049,2049.08,0.14,0.14,0,10.39
446470,2048,2047.55,-0.32,-0.32,0,10.39
446475,2051,2050.92,-0.78,-0.78,0,10.39
446480,2046,2046.44,-1.25,-1.25,0,10.39
446485,2042,2042.07,-1.73,-1.73,0,10.39
446490,2047,2046.57,-2.21,-2.21,0,10.39
446495,2047,2046.95,-2.68,-2.68,0,10.39
446500,2040,2040.42,-3.16,-3.16,0,10.39
446505,2047,2047.04,-3.63,-3.63,0,10.39
446510,2043,2042.6,-4.09,-4.09,0,10.39
446515,2043,2042.98,-4.55,-4.55,0,10.39
446520,2042,2042.38,-4.99,-4.99,0,10.39
446525,2043,2043.01,-5.42,-5.42,0,10.39
446530,2040,2039.64,-5.83,-5.83,0,10.39
446535,2034,2034.0,-6.22,-6.22,0,10.39
446540,2034,2034.34,-6.6,-6.6,0,10.39
446545,2039,2039.0,-6.95,-6.95,0,10.39
446550,2046,2045.7,-7.28,-7.28,0,10.39
446555,2042,2042.0,-7.59,-7.59,0,10.39
446560,2043,2043.26,-7.88,-7.88,0,10.39
446565,2035,2035.0,-8.15,-8.15,0,10.39
446570,2032,2031.78,-8.39,-8.39,0,10.39
446575,2045,2045.01,-8.62,-8.62,0,10.39
446580,2036,2036.2,-8.82,-8.82,0,10.39
446585,2041,2040.96,-9.0,-9.0,0,10.39
446590,2041,2040.83,-9.15,-9.15,0,10.39
446595,2043,2043.07,-9.29,-9.29,0,10.39
446600,2037,2037.14,-9.41,-9.41,0,10.39
446605,2041,2040.9,-9.5,-9.5,0,10.39
446610,2039,2038.89,-9.57,-9.57,0,10.39
446615,2036,2036.13,-9.62,-9.62,0,10.39
446620,2037,2037.07,-9.65,-9.62,0,10.39
446625,2038,2037.84,-9.65,-9.62,0,10.39
446630,2039,2038.97,-9.63,-9.62,0,10.39
446635,2028,2028.17,-9.59,-9.59,0,10.39
446640,2042,2041.99,-9.52,-9.52,0,10.39
446645,2036,2035.82,-9.43,-9.43,0,10.39
446650,2033,2033.04,-9.31,-9.31,0,10.39
446655,2030,2030.18,-9.18,-9.18,0,10.39
446660,2036,2035.94,-9.03,-9.03,0,10.39
446665,2037,2036.84,-8.87,-8.87,0,10.39
446670,2039,2039.09,-8.7,-8.7,0,10.39
446675,2041,2041.15,-8.52,-8.52,0,10.39
446680,2047,2046.89,-8.34,-8.34,0,10.39
446685,2043,2042.86,-8.17,-8.17,0,10.39
446690,2043,2043.12,-8.0,-8.0,0,10.39
446695,2040,2040.12,-7.83,-7.83,0,10.39
446700,2041,2040.87,-7.68,-7.68,0,10.39
446705,2043,2042.89,-7.54,-7.54,0,10.39
446710,2037,2037.14,-7.42,-7.42,0,10.39
446715,2041,2041.08,-7.31,-7.31,0,10.39
446720,2037,2036.85,-7.22,-7.22,0,10.39
446725,2042,2041.94,-7.14,-7.14,0,10.39
446730,2040,2040.15,-7.08,-7.08,0,10.39
446735,2040,2040.04,-7.04,-7.06,0,10.39
446740,2043,2042.83,-7.03,-7.06,0,10.39
446745,2043,2042.99,-7.03,-7.06,0,10.39
446750,2043,2043.17,-7.06,-7.06,0,10.39
446755,2045,2044.98,-7.11,-7.11,0,10.39
446760,2044,2043.82,-7.19,-7.19,0,10.39
446765,2034,2034.04,-7.28,-7.28,0,10.39
446770,2039,2039.19,-7.4,-7.4,0,10.39
446775,2039,2038.95,-7.54,-7.54,0,10.39
446780,2041,2040.81,-7.69,-7.69,0,10.39
446785,2042,2042.06,-7.86,-7.86,0,10.39
446790,2045,2045.19,-8.05,-8.05,0,10.39
446795,2037,2036.93,-8.26,-8.26,0,10.39
446800,2037,2036.8,-8.47,-8.47,0,10.39
446805,2035,2035.09,-8.7,-8.7,0,10.39
446810,2039,2039.22,-8.93,-8.93,0,10.39
446815,2040,2039.9,-9.18,-9.18,0,10.39
446820,2040,2039.76,-9.42,-9.42,0,10.39
446825,2040,2040.11,-9.68,-9.68,0,10.39
446830,2038,2038.26,-9.93,-9.93,0,10.39
446835,2042,2041.88,-10.19,-10.19,0,10.39
446840,2046,2045.73,-10.44,-10.44,0,10.39
446845,2038,2038.12,-10.69,-10.69,0,10.39
446850,2036,2036.27,-10.93,-10.93,0,10.39
446855,2040,2039.88,-11.15,-11.15,0,10.39
446860,2035,2034.73,-11.36,-11.36,0,10.39
446865,2036,2036.12,-11.55,-11.55,0,10.39
446870,2033,2033.26,-11.71,-11.71,0,10.39
446875,2036,2035.89,-11.83,-11.83,0,10.39
446880,2035,2034.74,-11.93,-11.93,0,10.39
446885,2033,2033.1,-11.98,-11.93,0,10.39
446890,2037,2037.25,-12.0,-11.93,0,10.39
446895,2035,2034.91,-11.98,-11.93,0,10.39
446900,2038,2037.76,-11.91,-11.91,0,10.39
446905,2032,2032.08,-11.79,-11.79,0,10.39
446910,2043,2043.24,-11.62,-11.62,0,10.39
446915,2035,2034.94,-11.41,-11.41,0,10.39
446920,2040,2039.75,-11.14,-11.14,0,10.39
446915,2035,2035.04,-10.82,-10.82,0,10.39
446925,2038,2038.25,-10.45,-10.45,0,10.39
446930,2039,2038.98,-10.03,-10.03,0,10.39
446935,2046,2045.75,-9.54,-9.54,0,10.39
446940,2042,2041.99,-9.01,-9.01,0,10.39
446945,2037,2037.24,-8.41,-8.41,0,10.39
446950,2041,2041.03,-7.76,-7.76,0,10.39
446955,2039,2038.77,-7.05,-7.05,0,10.39
446960,2040,2039.95,-6.28,-6.28,0,10.39
446965,2043,2043.21,-5.45,-5.45,0,10.39
446970,2042,2042.07,-4.57,-4.57,0,10.39
446975,2041,2040.8,-3.63,-3.63,0,10.39
446980,2039,2038.9,-2.64,-2.64,0,10.39
446985,2041,2041.19,-1.59,-1.59,0,10.39
446990,2043,2043.13,-0.51,-0.51,0,10.39
446995,2043,2042.82,0.62,0.62,0,10.39
447000,2047,2046.84,1.78,1.78,0,10.39
447005,2047,2047.17,2.97,2.97,0,10.39
447010,2045,2045.19,4.18,4.18,0,10.39
447015,2051,2050.83,5.39,5.39,0,10.39
447020,2054,2053.79,6.6,6.6,0,10.39
447025,2058,2058.16,7.8,7.8,0,10.39
447030,2060,2060.23,8.98,8.98,0,10.39
447035,2064,2063.84,10.13,10.13,0,10.39
447040,2069,2068.75,11.23,11.23,0,10.39
447045,2062,2062.15,12.27,12.27,0,10.39
447050,2069,2069.27,13.26,13.26,0,10.39
447055,2067,2066.87,14.18,14.18,0,10.39
447060,2068,2067.72,15.03,15.03,0,10.39
447065,2073,2073.12,15.8,15.8,0,10.39
447070,2071,2071.3,16.49,16.49,0,10.39
447075,2074,2073.89,17.1,17.1,0,10.39
447080,2073,2072.68,17.63,17.63,0,10.39
447085,2067,2067.1,18.07,18.07,0,10.39
447090,2068,2068.33,18.43,18.43,0,10.39
447095,2068,2067.92,18.71,18.71,0,10.39
447100,2072,2071.66,18.92,18.92,0,10.39
447105,2069,2069.06,19.06,19.06,0,10.39
447110,2067,2067.35,19.13,19.06,0,10.39
447115,2066,2065.95,19.14,19.06,0,10.39
447120,2073,2072.65,19.09,19.06,0,10.39
447125,2064,2064.03,18.99,18.99,0,10.39
447130,2063,2063.34,18.85,18.85,0,10.39
447135,2069,2068.99,18.67,18.67,0,10.39
447140,2062,2061.68,18.45,18.45,0,10.39
447145,2062,2061.98,18.21,18.21,0,10.39
447150,2062,2062.3,17.93,17.93,0,10.39
447155,2061,2061.05,17.64,17.64,0,10.39
447160,2066,2065.71,17.33,17.33,0,10.39
447165,2063,2062.92,17.0,17.0,0,10.39
447170,2062,2062.26,16.65,16.65,0,10.39
447175,2061,2061.11,16.3,16.3,0,10.39
447180,2068,2067.76,15.93,15.93,0,10.39
447185,2069,2068.87,15.55,15.55,0,10.39
447190,2064,2064.2,15.15,15.15,0,10.39
447195,2064,2064.14,14.75,14.75,0,10.39
447200,2064,2063.83,14.34,14.34,0,10.39
447205,2060,2059.85,13.92,13.92,0,10.39
447210,2069,2069.13,13.49,13.49,0,10.39
447215,2061,2061.17,13.05,13.05,0,10.39
447220,2059,2058.89,12.61,12.61,0,10.39
447225,2072,2071.82,12.16,12.16,0,10.39
447230,2064,2064.1,11.71,11.71,0,10.39
447235,2062,2062.17,11.26,11.26,0,10.39
447240,2058,2057.9,10.8,10.8,0,10.39
447245,2059,2058.83,10.35,10.35,0,10.39
447250,2060,2060.1,9.91,9.91,0,10.39
447255,2054,2054.16,9.47,9.47,0,10.39
447260,2058,2057.9,9.03,9.03,0,10.39
447265,2060,2059.86,8.61,8.61,0,10.39
447270,2055,2055.11,8.2,8.2,0,10.39
447275,2056,2056.12,7.8,7.8,0,10.39
447280,2053,2052.89,7.42,7.42,0,10.39
447285,2055,2054.91,7.04,7.04,0,10.39
447290,2057,2057.12,6.68,6.68,0,10.39
447295,2051,2051.07,6.33,6.33,0,10.39
447300,2057,2056.87,5.99,5.99,0,10.39
447305,2047,2046.96,5.65,5.65,0,10.39
447310,2057,2057.15,5.33,5.33,0,10.39
447315,2056,2056.02,5.01,5.01,0,10.39
447320,2054,2053.84,4.69,4.69,0,10.39
447325,2054,2053.99,4.37,4.37,0,10.39
447330,2051,2051.18,4.04,4.04,0,10.39
447335,2056,2056.0,3.71,3.71,0,10.39
447340,2057,2056.81,3.38,3.38,0,10.39
447345,2049,2049.0,3.03,3.03,0,10.39
447350,2055,2055.19,2.67,2.67,0,10.39
447355,2056,2056.01,2.29,2.29,0,10.39
447360,2055,2054.8,1.9,1.9,0,10.39
447365,2053,2052.97,1.49,1.49,0,10.39
447370,2054,2054.2,1.06,1.06,0,10.39
447375,2053,2053.05,0.62,0.62,0,10.39
447380,2054,2053.8,0.15,0.15,0,10.39
447385,2053,2052.94,-0.33,-0.33,0,10.39
447390,2054,2054.21,-0.82,-0.82,0,10.39
447395,2052,2052.08,-1.33,-1.33,0,10.39
447400,2050,2049.79,-1.84,-1.84,0,10.39
447405,2046,2045.9,-2.36,-2.36,0,10.39
447410,2049,2049.22,-2.89,-2.89,0,10.39
447415,2041,2041.12,-3.41,-3.41,0,10.39
447420,2041,2040.76,-3.92,-3.92,0,10.39
447425,2049,2048.86,-4.43,-4.43,0,10.39
447430,2041,2041.26,-4.92,-4.92,0,10.39
447435,2043,2043.14,-5.4,-5.4,0,10.39
447440,2043,2042.72,-5.86,-5.86,0,10.39
447445,2047,2046.86,-6.29,-6.29,0,10.39
447450,2039,2039.3,-6.71,-6.71,0,10.39
447455,2039,2039.13,-7.11,-7.11,0,10.39
447460,2044,2043.69,-7.47,-7.47,0,10.39
447465,2041,2040.89,-7.82,-7.82,0,10.39
447470,2046,2046.32,-8.13,-8.13,0,10.39
447475,2041,2041.1,-8.42,-8.42,0,10.39
447480,2039,2038.66,-8.69,-8.69,0,10.39
447485,2036,2035.92,-8.92,-8.92,0,10.39
447490,2041,2041.37,-9.13,-9.13,0,10.39
447495,2041,2041.07,-9.31,-9.31,0,10.39
447500,2040,2039.61,-9.46,-9.46,0,10.39
447505,2038,2037.93,-9.59,-9.59,0,10.39
447510,2040,2040.43,-9.7,-9.7,0,10.39
447515,2038,2038.07,-9.78,-9.78,0,10.39
447520,2045,2044.55,-9.85,-9.85,0,10.39
447525,2042,2041.93,-9.9,-9.9,0,10.39
447530,2041,2041.48,-9.93,-9.93,0,10.39
447535,2040,2040.07,-9.96,-9.96,0,10.39
447540,2044,2043.5,-9.97,-9.96,0,10.39
447545,2042,2041.94,-9.97,-9.96,0,10.39
447550,2040,2040.51,-9.97,-9.96,0,10.39
447555,2046,2046.05,-9.96,-9.96,0,10.39
447560,2040,2039.47,-9.95,-9.95,0,10.39
447565,2039,2038.95,-9.93,-9.93,0,10.39
447570,2041,2041.54,-9.92,-9.92,0,10.39
447575,2043,2043.06,-9.89,-9.89,0,10.39
447580,2041,2040.44,-9.87,-9.87,0,10.39
447585,2044,2043.93,-9.85,-9.85,0,10.39
447590,2041,2041.58,-9.82,-9.82,0,10.39
447595,2037,2037.08,-9.8,-9.8,0,10.39
447600,2041,2040.4,-9.77,-9.77,0,10.39
447605,2041,2040.92,-9.74,-9.74,0,10.39
447610,2038,2038.63,-9.72,-9.72,0,10.39
447615,2042,2042.08,-9.69,-9.69,0,10.39
447620,2047,2046.36,-9.67,-9.67,0,10.39
447625,2041,2040.93,-9.65,-9.65,0,10.39
447630,2034,2034.64,-9.63,-9.63,0,10.39
447635,2042,2042.07,-9.61,-9.61,0,10.39
447640,2041,2040.37,-9.6,-9.6,0,10.39
447645,2042,2041.92,-9.59,-9.59,0,10.39
447650,2041,2041.62,-9.58,-9.59,0,10.39
447655,2040,2040.07,-9.58,-9.59,0,10.39
447660,2046,2045.4,-9.58,-9.59,0,10.39
447665,2041,2040.93,-9.59,-9.59,0,10.39
447670,2044,2044.59,-9.61,-9.61,0,10.39
447675,2039,2039.07,-9.63,-9.63,0,10.39
447680,2041,2040.43,-9.66,-9.66,0,10.39
447685,2042,2041.94,-9.69,-9.69,0,10.39
447690,2037,2037.56,-9.73,-9.73,0,10.39
447695,2039,2039.05,-9.78,-9.78,0,10.39
447700,2041,2040.46,-9.83,-9.83,0,10.39
447705,2043,2042.97,-9.89,-9.89,0,10.39
